ID,empatica_bvp,empatica_eda,empatica_temp,samsung_bvp,time,CL
10.0,-66.8325,,,1734739.0,1721466928.5868695,1
10.0,-90.94749999999999,,,1733845.5,1721466928.6477392,1
10.0,-99.38000000000001,,,1736932.0,1721466928.7086086,1
10.0,-65.68,0.268998,34.77,1738217.5,1721466928.7694783,1
10.0,-32.855,,,1735836.0,1721466928.8303478,1
10.0,-8.16,,,1734102.0,1721466928.8912175,1
10.0,3.8699999999999997,,,1740465.0,1721466928.952087,1
10.0,6.404999999999999,0.318955,34.77,1747399.5,1721466929.0129566,1
10.0,0.0,,,1752942.0,1721466929.073826,1
10.0,-4.455,,,1760078.5,1721466929.1346958,1
10.0,-6.1575,,,1767375.0,1721466929.1955652,1
10.0,-11.3475,0.308708,34.77,1773100.0,1721466929.256435,1
10.0,-21.2175,,,1776408.0,1721466929.3173044,1
10.0,-32.275000000000006,,,1782039.0,1721466929.3781738,1
10.0,-42.865,,,1786628.0,1721466929.4390435,1
10.0,-46.43000000000001,,,1790991.0,1721466929.499913,1
10.0,-37.9525,0.288213,34.77,1794910.0,1721466929.5607827,1
10.0,-20.89,,,1798379.0,1721466929.6216521,1
10.0,6.22,,,1801880.0,1721466929.6825218,1
10.0,31.8825,,,1805233.0,1721466929.7433913,1
10.0,90.4725,0.281808,34.77,1808748.0,1721466929.804261,1
10.0,178.5675,,,1812543.5,1721466929.8651304,1
10.0,220.765,,,1816347.0,1721466929.926,1
10.0,153.25,,,1820525.0,1721466929.9868696,1
10.0,-67.02000000000001,0.283089,34.77,1825487.0,1721466930.0477393,1
10.0,-295.7033333333333,,,1827025.0,1721466930.1086087,1
10.0,-440.62250000000006,,,1826813.0,1721466930.1694782,1
10.0,-516.8975,,,1827798.0,1721466930.2303479,1
10.0,-479.40250000000003,0.277965,34.77,1829982.0,1721466930.2912173,1
10.0,-391.4825000000001,,,1832225.0,1721466930.352087,1
10.0,-314.2325,,,1834590.5,1721466930.4129565,1
10.0,-233.2925,,,1836817.0,1721466930.4738262,1
10.0,-138.995,0.276684,34.77,1839604.0,1721466930.5346956,1
10.0,-68.0875,,,1842308.0,1721466930.5955653,1
10.0,-14.115,,,1845776.5,1721466930.6564348,1
10.0,25.290000000000003,,,1849570.0,1721466930.7173045,1
10.0,55.61,0.275403,34.77,1852819.5,1721466930.778174,1
10.0,87.3125,,,1855985.0,1721466930.8390436,1
10.0,124.5625,,,1859502.0,1721466930.899913,1
10.0,162.185,,,1862575.0,1721466930.9607825,1
10.0,214.875,0.272841,34.77,1862937.5,1721466931.0216522,1
10.0,269.22,,,1861128.0,1721466931.0825217,1
10.0,339.96250000000003,,,1861028.5,1721466931.1433914,1
10.0,426.77750000000003,,,1861863.0,1721466931.2042608,1
10.0,400.2,0.274122,34.75,1863331.0,1721466931.2651305,1
10.0,279.02250000000004,,,1864712.0,1721466931.326,1
10.0,174.6375,,,1866122.0,1721466931.3868697,1
10.0,152.6625,,,1868222.0,1721466931.4477391,1
10.0,141.9475,0.276684,34.75,1869949.0,1721466931.5086088,1
10.0,118.6625,,,1872113.5,1721466931.5694783,1
10.0,93.27749999999999,,,1874923.0,1721466931.630348,1
10.0,70.8125,,,1873449.5,1721466931.6912174,1
10.0,62.067499999999995,0.274122,34.75,1870428.0,1721466931.7520869,1
10.0,44.19,,,1869739.0,1721466931.8129566,1
10.0,19.2,,,1872257.0,1721466931.873826,1
10.0,-4.2075,,,1869809.5,1721466931.9346957,1
10.0,-26.8075,,,1867697.0,1721466931.9955652,1
10.0,-46.1375,0.272841,34.75,1868475.5,1721466932.0564349,1
10.0,-67.495,,,1869570.0,1721466932.1173043,1
10.0,-82.50999999999999,,,1870598.5,1721466932.178174,1
10.0,-85.405,,,1870205.0,1721466932.2390435,1
10.0,-39.7775,0.272841,34.75,1872188.5,1721466932.2999132,1
10.0,25.6425,,,1875483.0,1721466932.3607826,1
10.0,60.60333333333333,,,1886629.5,1721466932.421652,1
10.0,73.86500000000001,,,1901936.0,1721466932.4825218,1
10.0,66.645,0.274122,34.75,1913070.5,1721466932.5433912,1
10.0,40.63,,,1923816.0,1721466932.604261,1
10.0,23.4775,,,1927519.5,1721466932.6651304,1
10.0,9.125,,,1924987.0,1721466932.726,1
10.0,-1.4024999999999999,0.272841,34.75,1922118.5,1721466932.7868695,1
10.0,25.259999999999998,,,1914593.5,1721466932.8477392,1
10.0,44.2175,,,1905410.0,1721466932.9086087,1
10.0,18.51,,,1899924.5,1721466932.9694784,1
10.0,-3.8766666666666665,0.27156,34.75,1896786.0,1721466933.0303478,1
10.0,-14.035,,,1897541.5,1721466933.0912175,1
10.0,-8.7775,,,1897881.0,1721466933.152087,1
10.0,-5.67,,,1897157.5,1721466933.2129564,1
10.0,-12.420000000000002,0.274122,34.73,1897545.0,1721466933.2738261,1
10.0,-24.4075,,,1898151.0,1721466933.3346956,1
10.0,-26.419999999999998,,,1899682.0,1721466933.3955653,1
10.0,-21.63,,,1900774.0,1721466933.4564347,1
10.0,3.9825000000000004,0.275403,34.73,1901471.0,1721466933.5173044,1
10.0,36.4525,,,1901960.5,1721466933.5781739,1
10.0,60.0,,,1901498.0,1721466933.6390436,1
10.0,74.36,,,1897674.0,1721466933.699913,1
10.0,59.7025,0.277965,34.73,1895557.0,1721466933.7607827,1
10.0,46.585,,,1895690.0,1721466933.8216522,1
10.0,49.385000000000005,,,1897054.0,1721466933.8825219,1
10.0,30.087500000000006,,,1896935.5,1721466933.9433913,1
10.0,-12.93,0.277965,34.73,1897041.0,1721466934.0042608,1
10.0,-45.405,,,1897083.0,1721466934.0651305,1
10.0,-55.355000000000004,,,1898245.0,1721466934.126,1
10.0,-53.906666666666666,,,1899825.0,1721466934.1868696,1
10.0,-52.4475,,,1903792.0,1721466934.247739,1
10.0,-55.165,0.275403,34.75,1905688.0,1721466934.3086088,1
10.0,-58.7,,,1903687.0,1721466934.3694782,1
10.0,-61.0425,,,1900086.0,1721466934.430348,1
10.0,-36.972500000000004,,,1902331.5,1721466934.4912174,1
10.0,-4.305000000000001,0.274122,34.75,1904654.0,1721466934.552087,1
10.0,4.1,,,1904668.0,1721466934.6129565,1
10.0,-1.05,,,1908153.0,1721466934.6738262,1
10.0,-7.015000000000001,,,1908037.0,1721466934.7346957,1
10.0,-8.4,0.279246,34.75,1908112.0,1721466934.7955651,1
10.0,-12.955,,,1911594.5,1721466934.8564348,1
10.0,-17.322499999999998,,,1912374.0,1721466934.9173043,1
10.0,-22.105,,,1909891.5,1721466934.978174,1
10.0,-31.92,0.277965,34.75,1904046.0,1721466935.0390434,1
10.0,-29.372499999999995,,,1899333.0,1721466935.0999131,1
10.0,-3.2800000000000002,,,1898474.0,1721466935.1607826,1
10.0,14.0,,,1899999.0,1721466935.2216523,1
10.0,13.485,0.277965,34.77,1901483.0,1721466935.2825217,1
10.0,6.609999999999999,,,1902580.5,1721466935.3433914,1
10.0,1.355,,,1903645.0,1721466935.4042609,1
10.0,-4.022500000000001,,,1905386.5,1721466935.4651306,1
10.0,-8.74,0.275403,34.77,1907130.0,1721466935.526,1
10.0,-17.64,,,1909154.0,1721466935.5868695,1
10.0,-24.7725,,,1907098.0,1721466935.6477392,1
10.0,-33.67,,,1901963.0,1721466935.7086086,1
10.0,-24.227500000000003,0.277965,34.77,1898543.0,1721466935.7694783,1
10.0,8.385000000000002,,,1896969.0,1721466935.8303478,1
10.0,31.105000000000004,,,1896982.0,1721466935.8912175,1
10.0,37.66666666666667,,,1896699.0,1721466935.952087,1
10.0,31.375,0.279246,34.77,1896334.5,1721466936.0129566,1
10.0,21.7125,,,1896146.0,1721466936.073826,1
10.0,7.6499999999999995,,,1896632.0,1721466936.1346958,1
10.0,-9.1625,,,1897247.0,1721466936.1955652,1
10.0,-19.924999999999997,0.279246,34.75,1898181.5,1721466936.256435,1
10.0,-30.589999999999996,,,1895888.0,1721466936.3173044,1
10.0,-37.2175,,,1888180.5,1721466936.3781738,1
10.0,-41.68,,,1881607.0,1721466936.4390435,1
10.0,-46.28,,,1877139.5,1721466936.499913,1
10.0,-29.83,0.275403,34.75,1874675.0,1721466936.5607827,1
10.0,6.934999999999999,,,1872001.0,1721466936.6216521,1
10.0,22.947499999999998,,,1870532.0,1721466936.6825218,1
10.0,12.49,,,1869198.5,1721466936.7433913,1
10.0,0.07750000000000001,0.272841,34.75,1867653.0,1721466936.804261,1
10.0,-4.2475000000000005,,,1866196.0,1721466936.8651304,1
10.0,-6.2675,,,1866206.0,1721466936.926,1
10.0,-7.835,,,1866569.0,1721466936.9868696,1
10.0,-12.0375,0.272841,34.75,1866273.5,1721466937.0477393,1
10.0,-14.056666666666667,,,1859336.0,1721466937.1086087,1
10.0,-21.8025,,,1851469.0,1721466937.1694782,1
10.0,-33.980000000000004,,,1844636.0,1721466937.2303479,1
10.0,-39.230000000000004,0.275403,34.77,1843609.0,1721466937.2912173,1
10.0,-54.067499999999995,,,1842442.0,1721466937.352087,1
10.0,-78.89750000000001,,,1843948.5,1721466937.4129565,1
10.0,-67.27,,,1840537.0,1721466937.4738262,1
10.0,-45.8525,0.275403,34.77,1836198.5,1721466937.5346956,1
10.0,-52.3275,,,1832977.0,1721466937.5955653,1
10.0,-47.5725,,,1833286.0,1721466937.6564348,1
10.0,-26.22,,,1835330.0,1721466937.7173045,1
10.0,1.0950000000000006,0.274122,34.77,1836937.5,1721466937.778174,1
10.0,28.267500000000002,,,1839941.0,1721466937.8390436,1
10.0,26.392500000000002,,,1842632.5,1721466937.899913,1
10.0,13.19,,,1843043.0,1721466937.9607825,1
10.0,40.754999999999995,0.272841,34.77,1837062.0,1721466938.0216522,1
10.0,64.0425,,,1828585.0,1721466938.0825217,1
10.0,56.022499999999994,,,1821611.5,1721466938.1433914,1
10.0,52.89,,,1817938.0,1721466938.2042608,1
10.0,58.42333333333334,0.276684,34.73,1814601.0,1721466938.2651305,1
10.0,83.49000000000001,,,1811612.0,1721466938.326,1
10.0,108.01999999999998,,,1808821.0,1721466938.3868697,1
10.0,100.1325,,,1807726.0,1721466938.4477391,1
10.0,78.38,0.279246,34.73,1807026.5,1721466938.5086088,1
10.0,76.83500000000001,,,1807984.5,1721466938.5694783,1
10.0,65.9025,,,1808552.0,1721466938.630348,1
10.0,30.999999999999996,,,1809119.5,1721466938.6912174,1
10.0,-9.87,0.275403,34.73,1810316.0,1721466938.7520869,1
10.0,-52.364999999999995,,,1808259.0,1721466938.8129566,1
10.0,-71.12333333333333,,,1803269.0,1721466938.873826,1
10.0,-82.1125,,,1799677.0,1721466938.9346957,1
10.0,-92.235,,,1798667.0,1721466938.9955652,1
10.0,-96.9925,0.276684,34.73,1799136.5,1721466939.0564349,1
10.0,-89.83250000000001,,,1799749.0,1721466939.1173043,1
10.0,-49.63,,,1800385.5,1721466939.178174,1
10.0,-16.932499999999997,,,1801455.0,1721466939.2390435,1
10.0,-9.845,0.279246,34.73,1802696.0,1721466939.2999132,1
10.0,-0.8549999999999999,,,1804720.0,1721466939.3607826,1
10.0,-0.8866666666666667,,,1807067.5,1721466939.421652,1
10.0,-11.58,,,1809175.0,1721466939.4825218,1
10.0,-19.01,0.277965,34.73,1810575.0,1721466939.5433912,1
10.0,-30.787499999999998,,,1807572.0,1721466939.604261,1
10.0,-43.36,,,1803199.5,1721466939.6651304,1
10.0,-13.345,,,1801404.0,1721466939.726,1
10.0,34.4475,0.279246,34.73,1800799.0,1721466939.7868695,1
10.0,57.435,,,1801133.0,1721466939.8477392,1
10.0,57.6175,,,1801665.0,1721466939.9086087,1
10.0,54.515,,,1803071.5,1721466939.9694784,1
10.0,43.69,0.275403,34.73,1804856.0,1721466940.0303478,1
10.0,27.8725,,,1807328.0,1721466940.0912175,1
10.0,12.3475,,,1810104.0,1721466940.152087,1
10.0,-9.8525,,,1811441.0,1721466940.2129564,1
10.0,-26.16,0.275403,34.73,1808180.0,1721466940.2738261,1
10.0,-44.1675,,,1805545.5,1721466940.3346956,1
10.0,-51.03,,,1804658.0,1721466940.3955653,1
10.0,-15.8075,,,1805808.0,1721466940.4564347,1
10.0,24.765,0.277965,34.73,1807305.0,1721466940.5173044,1
10.0,41.605000000000004,,,1808233.5,1721466940.5781739,1
10.0,40.93666666666667,,,1809678.0,1721466940.6390436,1
10.0,38.2575,,,1811626.0,1721466940.699913,1
10.0,37.0775,0.279246,34.73,1813621.0,1721466940.7607827,1
10.0,40.095,,,1816380.0,1721466940.8216522,1
10.0,37.2675,,,1819779.5,1721466940.8825219,1
10.0,27.224999999999998,,,1819852.0,1721466940.9433913,1
10.0,14.53,0.277965,34.73,1815153.5,1721466941.0042608,1
10.0,-0.6075,,,1812070.0,1721466941.0651305,1
10.0,-13.71,,,1811113.0,1721466941.126,1
10.0,-27.463333333333335,,,1811654.0,1721466941.1868696,1
10.0,-36.0125,,,1812328.0,1721466941.247739,1
10.0,-21.58,0.275403,34.73,1813081.0,1721466941.3086088,1
10.0,-1.6749999999999996,,,1813670.5,1721466941.3694782,1
10.0,6.2175,,,1814690.0,1721466941.430348,1
10.0,-5.91,,,1816748.5,1721466941.4912174,1
10.0,-10.515,0.275403,34.73,1819523.0,1721466941.552087,1
10.0,-11.712499999999999,,,1823489.0,1721466941.6129565,1
10.0,-10.95,,,1828154.0,1721466941.6738262,1
10.0,-2.7949999999999995,,,1833446.0,1721466941.7346957,1
10.0,1.1300000000000001,0.276684,34.73,1836721.0,1721466941.7955651,1
10.0,-1.6949999999999998,,,1839720.0,1721466941.8564348,1
10.0,-8.6475,,,1842498.0,1721466941.9173043,1
10.0,-16.8975,,,1849241.0,1721466941.978174,1
10.0,-26.4725,0.277965,34.73,1854294.0,1721466942.0390434,1
10.0,-36.2425,,,1859268.5,1721466942.0999131,1
10.0,-33.1925,,,1858353.0,1721466942.1607826,1
10.0,-5.597499999999998,,,1855387.5,1721466942.2216523,1
10.0,16.175,0.277965,34.75,1854094.0,1721466942.2825217,1
10.0,22.013333333333332,,,1855378.5,1721466942.3433914,1
10.0,18.122500000000002,,,1856351.0,1721466942.4042609,1
10.0,16.095000000000002,,,1857491.0,1721466942.4651306,1
10.0,14.195,0.276684,34.75,1858955.0,1721466942.526,1
10.0,11.209999999999999,,,1860926.0,1721466942.5868695,1
10.0,2.57,,,1863731.5,1721466942.6477392,1
10.0,-6.0525,,,1862600.0,1721466942.7086086,1
10.0,-13.725,0.275403,34.75,1858195.0,1721466942.7694783,1
10.0,-20.7075,,,1855052.0,1721466942.8303478,1
10.0,-30.1475,,,1854194.0,1721466942.8912175,1
10.0,-28.223333333333333,,,1853823.0,1721466942.952087,1
10.0,-5.2775,0.297179,34.75,1853547.0,1721466943.0129566,1
10.0,27.45,,,1853045.0,1721466943.073826,1
10.0,41.7025,,,1853111.0,1721466943.1346958,1
10.0,38.195,,,1853764.0,1721466943.1955652,1
10.0,39.995,0.288213,34.75,1854969.5,1721466943.256435,1
10.0,45.9675,,,1856292.0,1721466943.3173044,1
10.0,33.7325,,,1857781.5,1721466943.3781738,1
10.0,9.462500000000002,,,1859398.0,1721466943.4390435,1
10.0,-11.206666666666669,,,1858734.0,1721466943.499913,1
10.0,-33.54,0.28437,34.75,1851624.0,1721466943.5607827,1
10.0,-46.7725,,,1847289.0,1721466943.6216521,1
10.0,-43.387499999999996,,,1845726.5,1721466943.6825218,1
10.0,-47.260000000000005,,,1844657.0,1721466943.7433913,1
10.0,-37.28,0.283089,34.75,1844275.5,1721466943.804261,1
10.0,-9.8275,,,1845018.0,1721466943.8651304,1
10.0,5.205,,,1845170.0,1721466943.926,1
10.0,6.61,,,1845360.5,1721466943.9868696,1
10.0,3.0775,0.286932,34.75,1845994.0,1721466944.0477393,1
10.0,4.586666666666667,,,1847052.0,1721466944.1086087,1
10.0,10.12,,,1848108.0,1721466944.1694782,1
10.0,11.830000000000002,,,1848597.0,1721466944.2303479,1
10.0,8.245,0.286932,34.73,1850304.0,1721466944.2912173,1
10.0,4.777500000000001,,,1847599.0,1721466944.352087,1
10.0,-5.405,,,1841589.0,1721466944.4129565,1
10.0,-16.0975,,,1838397.5,1721466944.4738262,1
10.0,-24.692500000000003,0.285651,34.73,1838048.0,1721466944.5346956,1
10.0,-27.220000000000002,,,1839794.0,1721466944.5955653,1
10.0,-2.9125,,,1842242.0,1721466944.6564348,1
10.0,16.976666666666667,,,1844861.0,1721466944.7173045,1
10.0,22.820000000000004,0.28437,34.73,1847978.0,1721466944.778174,1
10.0,18.0475,,,1849601.5,1721466944.8390436,1
10.0,13.675,,,1851332.0,1721466944.899913,1
10.0,13.2575,,,1853342.5,1721466944.9607825,1
10.0,13.8525,0.281808,34.73,1856932.5,1721466945.0216522,1
10.0,11.290000000000001,,,1859472.0,1721466945.0825217,1
10.0,2.815,,,1859403.5,1721466945.1433914,1
10.0,-4.825,,,1855381.0,1721466945.2042608,1
10.0,-5.966666666666666,0.28437,34.73,1849845.0,1721466945.2651305,1
10.0,-4.3475,,,1846468.5,1721466945.326,1
10.0,-1.27,,,1844830.0,1721466945.3868697,1
10.0,15.4025,,,1844137.0,1721466945.4477391,1
10.0,30.154999999999998,0.285651,34.73,1843339.0,1721466945.5086088,1
10.0,22.465,,,1842669.0,1721466945.5694783,1
10.0,-10.879999999999999,,,1842788.0,1721466945.630348,1
10.0,-26.075,,,1843326.0,1721466945.6912174,1
10.0,-21.04,0.28437,34.73,1844036.0,1721466945.7520869,1
10.0,-12.375,,,1845438.0,1721466945.8129566,1
10.0,-17.77333333333333,,,1846555.0,1721466945.873826,1
10.0,-27.089999999999996,,,1843280.5,1721466945.9346957,1
10.0,-35.4825,,,1836877.0,1721466945.9955652,1
10.0,-45.46,0.281808,34.73,1832876.0,1721466946.0564349,1
10.0,-48.145,,,1830857.0,1721466946.1173043,1
10.0,-18.107499999999998,,,1830709.0,1721466946.178174,1
10.0,17.9225,,,1829828.5,1721466946.2390435,1
10.0,31.835,0.283089,34.73,1829483.0,1721466946.2999132,1
10.0,25.975,,,1829704.5,1721466946.3607826,1
10.0,19.816666666666666,,,1830729.0,1721466946.421652,1
10.0,15.025,,,1831583.0,1721466946.4825218,1
10.0,9.987499999999999,0.28437,34.73,1833339.5,1721466946.5433912,1
10.0,2.41,,,1835186.0,1721466946.604261,1
10.0,-9.245,,,1834573.5,1721466946.6651304,1
10.0,-20.7175,,,1828567.0,1721466946.726,1
10.0,-33.745000000000005,0.28437,34.73,1822839.5,1721466946.7868695,1
10.0,-29.7975,,,1819631.0,1721466946.8477392,1
10.0,4.15,,,1819165.5,1721466946.9086087,1
10.0,31.67,,,1818724.0,1721466946.9694784,1
10.0,36.79,0.281808,34.73,1818450.0,1721466947.0303478,1
10.0,29.2225,,,1817831.0,1721466947.0912175,1
10.0,21.8025,,,1818437.0,1721466947.152087,1
10.0,18.845,,,1819528.0,1721466947.2129564,1
10.0,17.84,0.281808,34.73,1820744.5,1721466947.2738261,1
10.0,5.809999999999999,,,1822771.0,1721466947.3346956,1
10.0,-8.5,,,1822359.0,1721466947.3955653,1
10.0,-25.6175,,,1816177.0,1721466947.4564347,1
10.0,-32.2025,0.281808,34.73,1810172.0,1721466947.5173044,1
10.0,-1.397499999999999,,,1806631.0,1721466947.5781739,1
10.0,25.673333333333332,,,1805468.5,1721466947.6390436,1
10.0,34.855,,,1804918.0,1721466947.699913,1
10.0,29.8975,0.28437,34.73,1804368.0,1721466947.7607827,1
10.0,20.71,,,1803666.0,1721466947.8216522,1
10.0,10.2425,,,1803928.5,1721466947.8825219,1
10.0,-0.76,,,1805096.0,1721466947.9433913,1
10.0,-7.324999999999999,0.28437,34.73,1806436.5,1721466948.0042608,1
10.0,-21.17,,,,1721466948.0651305,1
10.0,-33.792500000000004,,,1806588.5,1721466948.126,1
10.0,-42.88666666666666,,,1802434.0,1721466948.1868696,1
10.0,-54.0075,,,1797278.5,1721466948.247739,1
10.0,-33.765,0.281808,34.71,1796320.0,1721466948.3086088,1
10.0,11.415,,,1798384.0,1721466948.3694782,1
10.0,36.262499999999996,,,1801325.0,1721466948.430348,1
10.0,40.092499999999994,,,1808663.0,1721466948.4912174,1
10.0,34.06,0.281808,34.71,1815432.0,1721466948.552087,1
10.0,27.5175,,,1824475.5,1721466948.6129565,1
10.0,21.034999999999997,,,1825541.0,1721466948.6738262,1
10.0,11.120000000000001,,,1821856.0,1721466948.7346957,1
10.0,-3.64,0.283089,34.71,1819937.0,1721466948.7955651,1
10.0,-17.43,,,1821517.5,1721466948.8564348,1
10.0,-31.285,,,1817316.5,1721466948.9173043,1
10.0,-52.575,,,1806277.0,1721466948.978174,1
10.0,-56.8775,0.285651,34.71,1801926.5,1721466949.0390434,1
10.0,-16.585000000000004,,,1800252.0,1721466949.0999131,1
10.0,22.255000000000003,,,1801690.5,1721466949.1607826,1
10.0,34.07,,,1802119.0,1721466949.2216523,1
10.0,33.7675,0.285651,34.73,1802912.5,1721466949.2825217,1
10.0,31.346666666666664,,,1804146.0,1721466949.3433914,1
10.0,32.77250000000001,,,1805341.0,1721466949.4042609,1
10.0,35.575,,,1807017.0,1721466949.4651306,1
10.0,26.375,0.281808,34.73,1808720.0,1721466949.526,1
10.0,18.95,,,1810371.0,1721466949.5868695,1
10.0,4.0725,,,1809293.5,1721466949.6477392,1
10.0,-1.935,,,1801792.0,1721466949.7086086,1
10.0,-27.325,0.280527,34.73,1795433.0,1721466949.7694783,1
10.0,-78.86,,,1792592.0,1721466949.8303478,1
10.0,-45.715,,,1790292.5,1721466949.8912175,1
10.0,6.873333333333334,,,1788797.0,1721466949.952087,1
10.0,25.5075,0.28437,34.73,1786448.5,1721466950.0129566,1
10.0,24.6175,,,1785116.0,1721466950.073826,1
10.0,25.9525,,,1784546.0,1721466950.1346958,1
10.0,24.457499999999996,,,1784973.0,1721466950.1955652,1
10.0,28.3375,0.283089,34.71,1786341.0,1721466950.256435,1
10.0,28.26,,,1788397.0,1721466950.3173044,1
10.0,15.575,,,1790799.0,1721466950.3781738,1
10.0,1.6849999999999996,,,1792988.0,1721466950.4390435,1
10.0,-18.233333333333334,,,1788817.5,1721466950.499913,1
10.0,-35.2025,0.283089,34.71,1779120.0,1721466950.5607827,1
10.0,-53.765,,,1774182.0,1721466950.6216521,1
10.0,-61.18749999999999,,,1771793.5,1721466950.6825218,1
10.0,-28.68,,,1770846.0,1721466950.7433913,1
10.0,11.87,0.280527,34.71,1770694.0,1721466950.804261,1
10.0,26.455000000000002,,,1771703.0,1721466950.8651304,1
10.0,20.560000000000002,,,1772894.5,1721466950.926,1
10.0,17.385,,,1774038.0,1721466950.9868696,1
10.0,19.185,0.280527,34.71,1776101.0,1721466951.0477393,1
10.0,18.653333333333332,,,1777612.0,1721466951.1086087,1
10.0,15.885,,,1779977.5,1721466951.1694782,1
10.0,3.6075,,,1782222.0,1721466951.2303479,1
10.0,-5.8575,0.281808,34.71,1783509.0,1721466951.2912173,1
10.0,-16.31,,,1777294.0,1721466951.352087,1
10.0,-28.0275,,,1771386.5,1721466951.4129565,1
10.0,-3.2025,,,1768826.5,1721466951.4738262,1
10.0,37.9,0.283089,34.71,1768389.0,1721466951.5346956,1
10.0,48.7525,,,1767952.5,1721466951.5955653,1
10.0,37.58,,,1766758.0,1721466951.6564348,1
10.0,17.566666666666666,,,1766365.0,1721466951.7173045,1
10.0,7.525,0.283089,34.71,1766483.0,1721466951.778174,1
10.0,-0.5474999999999999,,,1767514.0,1721466951.8390436,1
10.0,-17.815,,,1768578.0,1721466951.899913,1
10.0,-35.9075,,,1770205.0,1721466951.9607825,1
10.0,-49.057500000000005,0.280527,34.71,1771030.0,1721466952.0216522,1
10.0,-63.6575,,,1766280.0,1721466952.0825217,1
10.0,-78.4375,,,1758573.0,1721466952.1433914,1
10.0,-90.86250000000001,,,1753636.5,1721466952.2042608,1
10.0,-89.52666666666669,0.281808,34.73,1750979.0,1721466952.2651305,1
10.0,-47.599999999999994,,,1749920.5,1721466952.326,1
10.0,7.925,,,1748950.0,1721466952.3868697,1
10.0,41.71,,,1748019.0,1721466952.4477391,1
10.0,53.2825,0.281808,34.73,1747253.5,1721466952.5086088,1
10.0,54.455,,,1747568.0,1721466952.5694783,1
10.0,52.22,,,1748380.0,1721466952.630348,1
10.0,47.040000000000006,,,1749489.0,1721466952.6912174,1
10.0,33.335,0.283089,34.73,1750821.5,1721466952.7520869,1
10.0,13.6525,,,1752577.0,1721466952.8129566,1
10.0,-5.36,,,1749258.0,1721466952.873826,1
10.0,-19.009999999999998,,,1740176.0,1721466952.9346957,1
10.0,-32.9625,,,1732985.0,1721466952.9955652,1
10.0,-55.4525,0.283089,34.73,1728049.0,1721466953.0564349,1
10.0,-42.86,,,1726214.0,1721466953.1173043,1
10.0,1.4400000000000004,,,1724454.0,1721466953.178174,1
10.0,36.150000000000006,,,1722732.5,1721466953.2390435,1
10.0,46.807500000000005,0.280527,34.71,1721970.0,1721466953.2999132,1
10.0,43.76,,,1722136.0,1721466953.3607826,1
10.0,40.32,,,1722867.0,1721466953.421652,1
10.0,41.87500000000001,,,1723950.0,1721466953.4825218,1
10.0,33.06,0.279246,34.71,1725960.5,1721466953.5433912,1
10.0,15.2975,,,1727815.0,1721466953.604261,1
10.0,-3.37,,,1727363.0,1721466953.6651304,1
10.0,-24.3425,,,1720004.0,1721466953.726,1
10.0,-36.0525,0.281808,34.71,1712178.0,1721466953.7868695,1
10.0,-57.052499999999995,,,1707216.0,1721466953.8477392,1
10.0,-53.3625,,,1705408.0,1721466953.9086087,1
10.0,-2.8275000000000006,,,1704262.0,1721466953.9694784,1
10.0,36.10666666666667,0.285651,34.71,1703088.0,1721466954.0303478,1
10.0,49.72,,,1703897.0,1721466954.0912175,1
10.0,41.192499999999995,,,1707121.0,1721466954.152087,1
10.0,32.352500000000006,,,1713356.5,1721466954.2129564,1
10.0,26.7425,0.283089,34.73,1722142.0,1721466954.2738261,1
10.0,16.385,,,1730652.5,1721466954.3346956,1
10.0,1.3375000000000004,,,1739390.0,1721466954.3955653,1
10.0,-15.46,,,1747825.0,1721466954.4564347,1
10.0,-31.2175,0.283089,34.73,1749767.0,1721466954.5173044,1
10.0,-43.755,,,1744276.0,1721466954.5781739,1
10.0,-62.663333333333334,,,1737819.0,1721466954.6390436,1
10.0,-69.0075,,,1735506.5,1721466954.699913,1
10.0,-22.65,0.294617,34.73,1732673.0,1721466954.7607827,1
10.0,29.1075,,,1729863.5,1721466954.8216522,1
10.0,48.1975,,,1726978.0,1721466954.8825219,1
10.0,43.1175,,,1726423.0,1721466954.9433913,1
10.0,35.765,0.29846,34.73,1726706.0,1721466955.0042608,1
10.0,31.749999999999996,,,1727328.0,1721466955.0651305,1
10.0,25.802500000000002,,,1728353.5,1721466955.126,1
10.0,17.083333333333332,,,1729820.0,1721466955.1868696,1
10.0,5.5125,,,1728885.5,1721466955.247739,1
10.0,-9.345,0.297179,34.73,1721605.0,1721466955.3086088,1
10.0,-23.0175,,,1712980.0,1721466955.3694782,1
10.0,-43.5775,,,1706720.0,1721466955.430348,1
10.0,-45.387499999999996,,,1704221.0,1721466955.4912174,1
10.0,9.325,0.295898,34.73,1702543.0,1721466955.552087,1
10.0,71.095,,,1700518.5,1721466955.6129565,1
10.0,99.8075,,,1699489.0,1721466955.6738262,1
10.0,64.365,,,1699340.0,1721466955.7346957,1
10.0,14.086666666666666,0.292055,34.73,1700012.0,1721466955.7955651,1
10.0,-7.8575,,,1701337.5,1721466955.8564348,1
10.0,-10.88,,,1702530.0,1721466955.9173043,1
10.0,-19.2375,,,1704694.5,1721466955.978174,1
10.0,-29.637500000000003,0.292055,34.73,1706469.0,1721466956.0390434,1
10.0,-41.6225,,,1701203.5,1721466956.0999131,1
10.0,-51.69,,,1692554.0,1721466956.1607826,1
10.0,-61.195,,,1689328.0,1721466956.2216523,1
10.0,-79.11999999999999,0.293336,34.71,1689157.5,1721466956.2825217,1
10.0,-55.330000000000005,,,1692021.0,1721466956.3433914,1
10.0,-0.33999999999999986,,,1698033.5,1721466956.4042609,1
10.0,40.22,,,1706031.0,1721466956.4651306,1
10.0,46.099999999999994,0.293336,34.71,1714672.0,1721466956.526,1
10.0,38.12,,,1721740.0,1721466956.5868695,1
10.0,35.4575,,,1720106.5,1721466956.6477392,1
10.0,34.16,,,1719423.0,1721466956.7086086,1
10.0,26.689999999999998,0.292055,34.71,1720511.5,1721466956.7694783,1
10.0,13.795,,,1723856.0,1721466956.8303478,1
10.0,0.2574999999999996,,,1721581.5,1721466956.8912175,1
10.0,-16.67,,,1713709.0,1721466956.952087,1
10.0,-28.2875,0.289494,34.71,1705724.0,1721466957.0129566,1
10.0,-48.897499999999994,,,1700922.0,1721466957.073826,1
10.0,-72.515,,,1698039.0,1721466957.1346958,1
10.0,-37.027499999999996,,,1695787.0,1721466957.1955652,1
10.0,22.585,0.289494,34.71,1693316.0,1721466957.256435,1
10.0,48.8975,,,1691669.0,1721466957.3173044,1
10.0,47.3675,,,1691555.0,1721466957.3781738,1
10.0,41.9125,,,1692801.5,1721466957.4390435,1
10.0,39.86666666666667,,,1694007.0,1721466957.499913,1
10.0,41.787499999999994,0.292055,34.71,1695731.0,1721466957.5607827,1
10.0,39.597500000000004,,,1697509.0,1721466957.6216521,1
10.0,28.055,,,1698899.0,1721466957.6825218,1
10.0,19.729999999999997,,,1694289.0,1721466957.7433913,1
10.0,3.185,0.293336,34.71,1686627.0,1721466957.804261,1
10.0,-12.01,,,1681531.0,1721466957.8651304,1
10.0,-55.087500000000006,,,1680437.0,1721466957.926,1
10.0,-130.2275,,,1678867.0,1721466957.9868696,1
10.0,-115.7125,0.293336,34.71,1678762.5,1721466958.0477393,1
10.0,-41.17333333333334,,,1678137.0,1721466958.1086087,1
10.0,5.3375,,,1678316.5,1721466958.1694782,1
10.0,24.82,,,1679260.0,1721466958.2303479,1
10.0,29.2475,0.289494,34.71,1681860.0,1721466958.2912173,1
10.0,31.8475,,,1684648.0,1721466958.352087,1
10.0,31.94,,,1688674.0,1721466958.4129565,1
10.0,30.335,,,1693542.0,1721466958.4738262,1
10.0,15.27,0.288213,34.71,1696645.5,1721466958.5346956,1
10.0,0.4674999999999998,,,1699517.0,1721466958.5955653,1
10.0,-16.384999999999998,,,1694903.0,1721466958.6564348,1
10.0,-29.943333333333328,,,1688547.0,1721466958.7173045,1
10.0,-39.737500000000004,0.290775,34.71,1684518.0,1721466958.778174,1
10.0,-59.41499999999999,,,1683617.5,1721466958.8390436,1
10.0,-63.745000000000005,,,1683503.0,1721466958.899913,1
10.0,-13.4075,,,1683296.0,1721466958.9607825,1
10.0,37.1175,0.292055,34.71,1683365.5,1721466959.0216522,1
10.0,50.7775,,,1684761.0,1721466959.0825217,1
10.0,40.074999999999996,,,1686457.5,1721466959.1433914,1
10.0,35.442499999999995,,,1688944.0,1721466959.2042608,1
10.0,35.53,0.292055,34.71,1691239.0,1721466959.2651305,1
10.0,35.825,,,1693660.0,1721466959.326,1
10.0,27.36,,,1696845.0,1721466959.3868697,1
10.0,14.620000000000001,,,1699668.0,1721466959.4477391,1
10.0,2.3949999999999996,0.289494,34.71,1696857.0,1721466959.5086088,1
10.0,-13.295000000000002,,,1691149.0,1721466959.5694783,1
10.0,-22.515,,,1688264.0,1721466959.630348,1
10.0,-33.2825,,,1687555.0,1721466959.6912174,1
10.0,-33.489999999999995,0.288213,34.71,1688066.0,1721466959.7520869,1
10.0,20.435000000000002,,,1689110.0,1721466959.8129566,1
10.0,76.64333333333333,,,1689771.5,1721466959.873826,1
10.0,90.5825,,,1691234.0,1721466959.9346957,1
10.0,59.79249999999999,,,1693212.0,1721466959.9955652,1
10.0,42.345,0.293336,34.71,1696725.0,1721466960.0564349,1
10.0,24.235,,,1699731.0,1721466960.1173043,1
10.0,-8.344999999999999,,,1703073.0,1721466960.178174,1
10.0,-35.235,,,1706536.0,1721466960.2390435,1
10.0,-48.5025,0.293336,34.71,1710737.0,1721466960.2999132,1
10.0,-55.0325,,,1713498.0,1721466960.3607826,1
10.0,-64.0,,,1710263.0,1721466960.421652,1
10.0,-67.6575,,,1710659.0,1721466960.4825218,1
10.0,-75.4875,0.290775,34.71,1710050.5,1721466960.5433912,1
10.0,-85.82,,,1709392.0,1721466960.604261,1
10.0,-42.7225,,,1709563.5,1721466960.6651304,1
10.0,19.03,,,1709837.0,1721466960.726,1
10.0,41.1225,0.288213,34.71,1710782.0,1721466960.7868695,1
10.0,33.71000000000001,,,1712049.0,1721466960.8477392,1
10.0,23.7425,,,1714459.5,1721466960.9086087,1
10.0,21.064999999999998,,,1716579.0,1721466960.9694784,1
10.0,21.23,0.286932,34.71,1719813.0,1721466961.0303478,1
10.0,14.1525,,,1722422.0,1721466961.0912175,1
10.0,-0.9975,,,1725252.0,1721466961.152087,1
10.0,-20.3175,,,1725503.0,1721466961.2129564,1
10.0,-37.765,0.289494,34.71,1720402.5,1721466961.2738261,1
10.0,-56.9675,,,1717155.0,1721466961.3346956,1
10.0,-72.3125,,,1717010.5,1721466961.3955653,1
10.0,-29.257499999999997,,,1718249.5,1721466961.4564347,1
10.0,31.6725,0.290775,34.71,1719486.0,1721466961.5173044,1
10.0,59.875,,,1720538.5,1721466961.5781739,1
10.0,58.32,,,1722138.0,1721466961.6390436,1
10.0,53.025000000000006,,,1724444.0,1721466961.699913,1
10.0,47.8475,0.289494,34.71,1726798.0,1721466961.7607827,1
10.0,46.0475,,,1729639.0,1721466961.8216522,1
10.0,37.865,,,1732525.0,1721466961.8825219,1
10.0,18.335,,,1735761.0,1721466961.9433913,1
10.0,3.5249999999999995,0.288213,34.71,1735818.0,1721466962.0042608,1
10.0,-24.16,,,1731116.0,1721466962.0651305,1
10.0,-83.6275,,,1728094.0,1721466962.126,1
10.0,-100.33333333333333,,,1727481.5,1721466962.1868696,1
10.0,-58.7575,,,1728159.0,1721466962.247739,1
10.0,-22.265,0.303584,34.71,1729030.0,1721466962.3086088,1
10.0,-14.012500000000001,,,1730489.0,1721466962.3694782,1
10.0,24.5075,,,1732259.0,1721466962.430348,1
10.0,44.699999999999996,,,1738438.5,1721466962.4912174,1
10.0,33.81,0.289494,34.71,1743402.0,1721466962.552087,1
10.0,19.082499999999996,,,1748273.5,1721466962.6129565,1
10.0,8.52,,,1752498.0,1721466962.6738262,1
10.0,-9.175,,,1756226.0,1721466962.7346957,1
10.0,-22.84,0.292055,34.71,1757723.0,1721466962.7955651,1
10.0,-37.620000000000005,,,1753108.5,1721466962.8564348,1
10.0,-50.01,,,1748602.0,1721466962.9173043,1
10.0,-72.63,,,1746240.5,1721466962.978174,1
10.0,-69.7075,0.288213,34.71,1745253.0,1721466963.0390434,1
10.0,-9.8625,,,1744560.0,1721466963.0999131,1
10.0,38.09,,,1743616.0,1721466963.1607826,1
10.0,49.925000000000004,,,1743283.5,1721466963.2216523,1
10.0,44.18000000000001,0.286932,34.68,1743518.5,1721466963.2825217,1
10.0,42.550000000000004,,,1744488.0,1721466963.3433914,1
10.0,42.175,,,1745704.5,1721466963.4042609,1
10.0,39.4075,,,1746954.0,1721466963.4651306,1
10.0,25.902500000000003,0.288213,34.68,1748770.5,1721466963.526,1
10.0,14.115,,,1749225.0,1721466963.5868695,1
10.0,-0.25749999999999995,,,1747665.5,1721466963.6477392,1
10.0,-11.6425,,,1742177.0,1721466963.7086086,1
10.0,-30.805,0.292055,34.68,1738201.5,1721466963.7694783,1
10.0,-26.5425,,,1736211.0,1721466963.8303478,1
10.0,39.397499999999994,,,1735952.5,1721466963.8912175,1
10.0,88.25666666666666,,,1735470.0,1721466963.952087,1
10.0,89.85,0.290775,34.68,1735172.0,1721466964.0129566,1
10.0,32.43,,,1735097.0,1721466964.073826,1
10.0,-31.0225,,,1735697.5,1721466964.1346958,1
10.0,-34.977500000000006,,,1736990.0,1721466964.1955652,1
10.0,-19.707500000000003,0.290775,34.68,1738568.0,1721466964.256435,1
10.0,-15.5575,,,1740072.0,1721466964.3173044,1
10.0,-15.065000000000001,,,1742146.0,1721466964.3781738,1
10.0,-19.7225,,,1740669.0,1721466964.4390435,1
10.0,-32.25333333333333,,,1734820.0,1721466964.499913,1
10.0,-42.212500000000006,0.289494,34.68,1730411.0,1721466964.5607827,1
10.0,-53.945,,,1728432.0,1721466964.6216521,1
10.0,-79.5475,,,1728062.0,1721466964.6825218,1
10.0,-72.62,,,1727866.0,1721466964.7433913,1
10.0,-7.074999999999999,0.295898,34.68,1727518.5,1721466964.804261,1
10.0,46.745000000000005,,,1727744.0,1721466964.8651304,1
10.0,62.47500000000001,,,1728824.0,1721466964.926,1
10.0,54.980000000000004,,,1729868.0,1721466964.9868696,1
10.0,47.9375,0.304865,34.68,1731750.0,1721466965.0477393,1
10.0,42.98,,,1733522.0,1721466965.1086087,1
10.0,41.14,,,1735521.0,1721466965.1694782,1
10.0,29.3825,,,1737782.0,1721466965.2303479,1
10.0,13.105,0.303584,34.68,1739628.5,1721466965.2912173,1
10.0,-4.9825,,,1738923.0,1721466965.352087,1
10.0,-24.03,,,1732518.5,1721466965.4129565,1
10.0,-36.245,,,1727894.0,1721466965.4738262,1
10.0,-57.425,0.299741,34.68,1725760.5,1721466965.5346956,1
10.0,-58.95250000000001,,,1724889.0,1721466965.5955653,1
10.0,-4.097500000000001,,,1724720.5,1721466965.6564348,1
10.0,35.13,,,1724291.0,1721466965.7173045,1
10.0,46.24,0.299741,34.68,1724453.5,1721466965.778174,1
10.0,40.1875,,,1725389.0,1721466965.8390436,1
10.0,32.07,,,1726498.0,1721466965.899913,1
10.0,28.372500000000002,,,1728472.0,1721466965.9607825,1
10.0,22.3125,0.301022,34.68,1730367.0,1721466966.0216522,1
10.0,7.78,,,1733040.0,1721466966.0825217,1
10.0,-11.46,,,1735119.0,1721466966.1433914,1
10.0,-30.3825,,,1734190.0,1721466966.2042608,1
10.0,-42.24,0.303584,34.71,1728354.0,1721466966.2651305,1
10.0,-61.9775,,,1724850.0,1721466966.326,1
10.0,-66.47749999999999,,,1724521.0,1721466966.3868697,1
10.0,-13.362499999999999,,,1725415.5,1721466966.4477391,1
10.0,33.325,0.302303,34.71,1728142.0,1721466966.5086088,1
10.0,44.504999999999995,,,1732667.0,1721466966.5694783,1
10.0,34.325,,,1736938.0,1721466966.630348,1
10.0,28.2725,,,1740660.5,1721466966.6912174,1
10.0,28.927500000000002,0.29846,34.71,1741908.0,1721466966.7520869,1
10.0,23.66,,,1743373.5,1721466966.8129566,1
10.0,11.186666666666667,,,1745775.0,1721466966.873826,1
10.0,-3.3950000000000005,,,1751746.5,1721466966.9346957,1
10.0,-23.11,,,1759690.0,1721466966.9955652,1
10.0,-39.0125,0.301022,34.71,1757520.0,1721466967.0564349,1
10.0,-60.415,,,1749224.0,1721466967.1173043,1
10.0,-68.36,,,1746304.0,1721466967.178174,1
10.0,-18.8675,,,1746968.5,1721466967.2390435,1
10.0,32.775000000000006,0.302303,34.68,1747932.0,1721466967.2999132,1
10.0,51.977500000000006,,,1748888.0,1721466967.3607826,1
10.0,46.69333333333333,,,1750560.0,1721466967.421652,1
10.0,36.805,,,1752385.0,1721466967.4825218,1
10.0,31.04,0.303584,34.68,1754816.0,1721466967.5433912,1
10.0,27.112499999999997,,,1757381.0,1721466967.604261,1
10.0,16.33,,,1760019.0,1721466967.6651304,1
10.0,0.8275000000000006,,,1762834.5,1721466967.726,1
10.0,-16.4,0.302303,34.68,1763329.0,1721466967.7868695,1
10.0,-29.175,,,1757096.0,1721466967.8477392,1
10.0,-44.7825,,,1751064.5,1721466967.9086087,1
10.0,-37.0725,,,1748931.0,1721466967.9694784,1
10.0,16.30333333333333,0.303584,34.68,1748688.5,1721466968.0303478,1
10.0,78.47,,,1748525.0,1721466968.0912175,1
10.0,112.4375,,,1748468.5,1721466968.152087,1
10.0,90.625,,,1748969.0,1721466968.2129564,1
10.0,47.125,0.306146,34.68,1750114.0,1721466968.2738261,1
10.0,15.67,,,1751911.0,1721466968.3346956,1
10.0,-9.682500000000001,,,1754047.0,1721466968.3955653,1
10.0,-39.8575,,,1756510.0,1721466968.4564347,1
10.0,-52.715,0.31127,34.68,1758761.5,1721466968.5173044,1
10.0,-67.5875,,,1757582.0,1721466968.5781739,1
10.0,-76.61666666666666,,,1751267.5,1721466968.6390436,1
10.0,-87.49,,,1746608.0,1721466968.699913,1
10.0,-99.4225,0.329203,34.68,1744051.0,1721466968.7607827,1
10.0,-68.85,,,1742689.0,1721466968.8216522,1
10.0,-2.5300000000000002,,,1741895.5,1721466968.8825219,1
10.0,34.4825,,,1740972.0,1721466968.9433913,1
10.0,35.655,0.322798,34.68,1740584.0,1721466969.0042608,1
10.0,26.137500000000003,,,1740672.0,1721466969.0651305,1
10.0,24.7825,,,1741176.0,1721466969.126,1
10.0,24.213333333333335,,,1742586.5,1721466969.1868696,1
10.0,17.36,,,1744217.0,1721466969.247739,1
10.0,5.07,0.317674,34.68,1745695.5,1721466969.3086088,1
10.0,-10.5625,,,1745315.0,1721466969.3694782,1
10.0,-28.379999999999995,,,1738741.0,1721466969.430348,1
10.0,-44.2975,,,1732685.0,1721466969.4912174,1
10.0,-66.2675,0.318955,34.68,1729643.0,1721466969.552087,1
10.0,-47.677499999999995,,,1728598.0,1721466969.6129565,1
10.0,12.9775,,,1727844.5,1721466969.6738262,1
10.0,52.29,,,1726994.0,1721466969.7346957,1
10.0,59.61333333333334,0.315113,34.68,1726750.0,1721466969.7955651,1
10.0,53.0975,,,1728114.5,1721466969.8564348,1
10.0,51.455,,,1729745.0,1721466969.9173043,1
10.0,51.877500000000005,,,1731848.0,1721466969.978174,1
10.0,54.197500000000005,0.315113,34.68,1733726.0,1721466970.0390434,1
10.0,45.42,,,1735828.5,1721466970.0999131,1
10.0,28.27,,,1736069.0,1721466970.1607826,1
10.0,5.549999999999999,,,1729179.5,1721466970.2216523,1
10.0,-38.072500000000005,0.31127,34.71,1721415.5,1721466970.2825217,1
10.0,-70.20666666666666,,,1718391.0,1721466970.3433914,1
10.0,-97.5575,,,1717721.5,1721466970.4042609,1
10.0,-124.98,,,1717199.0,1721466970.4651306,1
10.0,-80.02250000000001,0.309989,34.71,1716848.0,1721466970.526,1
10.0,0.4249999999999998,,,1717164.0,1721466970.5868695,1
10.0,42.6275,,,1718622.5,1721466970.6477392,1
10.0,52.019999999999996,,,1719134.0,1721466970.7086086,1
10.0,49.7975,0.313832,34.71,1723355.0,1721466970.7694783,1
10.0,45.567499999999995,,,1725915.0,1721466970.8303478,1
10.0,43.5525,,,1728354.5,1721466970.8912175,1
10.0,34.24333333333333,,,1730572.0,1721466970.952087,1
10.0,20.2425,0.312551,34.71,1733920.0,1721466971.0129566,1
10.0,3.7725,,,1739530.0,1721466971.073826,1
10.0,-13.0075,,,1744413.0,1721466971.1346958,1
10.0,-28.375,,,1749285.0,1721466971.1955652,1
10.0,-38.68,0.309989,34.66,1755043.5,1721466971.256435,1
10.0,-55.817499999999995,,,1759674.0,1721466971.3173044,1
10.0,-76.60750000000002,,,1756164.0,1721466971.3781738,1
10.0,-39.8475,,,1752473.0,1721466971.4390435,1
10.0,15.659999999999998,,,1750490.0,1721466971.499913,1
10.0,43.57,0.307427,34.66,1750818.0,1721466971.5607827,1
10.0,42.975,,,1750820.0,1721466971.6216521,1
10.0,31.302500000000002,,,1751827.5,1721466971.6825218,1
10.0,28.23,,,1752647.5,1721466971.7433913,1
10.0,27.365,0.309989,34.66,1754079.0,1721466971.804261,1
10.0,18.662499999999998,,,1755367.5,1721466971.8651304,1
10.0,5.2625,,,1757499.0,1721466971.926,1
10.0,-9.53,,,1758045.0,1721466971.9868696,1
10.0,-29.555,0.31127,34.66,1753362.0,1721466972.0477393,1
10.0,-37.416666666666664,,,1747092.0,1721466972.1086087,1
10.0,-53.072500000000005,,,1746917.0,1721466972.1694782,1
10.0,-60.129999999999995,,,1749675.0,1721466972.2303479,1
10.0,-10.002500000000001,0.308708,34.68,1753088.0,1721466972.2912173,1
10.0,42.045,,,1755408.5,1721466972.352087,1
10.0,57.035,,,1758619.0,1721466972.4129565,1
10.0,44.81250000000001,,,1762081.0,1721466972.4738262,1
10.0,32.935,0.307427,34.68,1766178.0,1721466972.5346956,1
10.0,31.41,,,1769922.5,1721466972.5955653,1
10.0,22.9025,,,1774080.0,1721466972.6564348,1
10.0,9.01,,,1778434.0,1721466972.7173045,1
10.0,-5.6850000000000005,0.307427,34.68,1782282.0,1721466972.778174,1
10.0,-16.252499999999998,,,1782723.5,1721466972.8390436,1
10.0,-28.6075,,,1778633.0,1721466972.899913,1
10.0,-39.47,,,1776230.5,1721466972.9607825,1
10.0,-52.6125,0.309989,34.68,1776142.0,1721466973.0216522,1
10.0,-74.43,,,1777855.5,1721466973.0825217,1
10.0,-62.86,,,1778675.0,1721466973.1433914,1
10.0,0.6424999999999992,,,1780432.0,1721466973.2042608,1
10.0,38.379999999999995,0.31127,34.68,1781203.0,1721466973.2651305,1
10.0,51.69,,,1782154.0,1721466973.326,1
10.0,47.76499999999999,,,1784563.0,1721466973.3868697,1
10.0,39.8275,,,1789820.0,1721466973.4477391,1
10.0,35.31,0.31127,34.68,1795353.5,1721466973.5086088,1
10.0,32.2875,,,1793536.0,1721466973.5694783,1
10.0,21.83,,,1794842.0,1721466973.630348,1
10.0,8.379999999999999,,,1794242.0,1721466973.6912174,1
10.0,-5.0175,0.31127,34.68,1787928.0,1721466973.7520869,1
10.0,-21.8825,,,1778686.0,1721466973.8129566,1
10.0,-36.62666666666667,,,1771937.0,1721466973.873826,1
10.0,-47.5225,,,1767602.0,1721466973.9346957,1
10.0,-68.08500000000001,,,1764884.0,1721466973.9955652,1
10.0,-71.3275,0.31127,34.68,1762467.0,1721466974.0564349,1
10.0,-12.745,,,1760128.5,1721466974.1173043,1
10.0,38.6575,,,1758690.0,1721466974.178174,1
10.0,53.4625,,,1758440.0,1721466974.2390435,1
10.0,46.2075,0.312551,34.66,1758719.0,1721466974.2999132,1
10.0,43.114999999999995,,,1759747.0,1721466974.3607826,1
10.0,44.169999999999995,,,1760482.0,1721466974.421652,1
10.0,46.3975,,,1761757.5,1721466974.4825218,1
10.0,36.370000000000005,0.315113,34.66,1764049.5,1721466974.5433912,1
10.0,16.6425,,,1765072.0,1721466974.604261,1
10.0,-14.645,,,1759191.0,1721466974.6651304,1
10.0,-56.88250000000001,,,1751598.0,1721466974.726,1
10.0,-96.7525,0.315113,34.66,1747523.0,1721466974.7868695,1
10.0,-113.1225,,,1746211.0,1721466974.8477392,1
10.0,-79.6725,,,1745490.5,1721466974.9086087,1
10.0,-7.6674999999999995,,,1744926.0,1721466974.9694784,1
10.0,39.00666666666667,0.315113,34.66,1744757.5,1721466975.0303478,1
10.0,54.0175,,,1744749.0,1721466975.0912175,1
10.0,44.4625,,,1746057.5,1721466975.152087,1
10.0,38.160000000000004,,,1747783.0,1721466975.2129564,1
10.0,36.879999999999995,0.312551,34.68,1749927.0,1721466975.2738261,1
10.0,34.075,,,1752932.5,1721466975.3346956,1
10.0,18.2425,,,1755543.0,1721466975.3955653,1
10.0,3.2899999999999996,,,1755018.0,1721466975.4564347,1
10.0,-13.709999999999999,0.316393,34.68,1747919.0,1721466975.5173044,1
10.0,-32.7825,,,1741284.5,1721466975.5781739,1
10.0,-45.13,,,1739606.0,1721466975.6390436,1
10.0,-65.52250000000001,,,1737192.5,1721466975.699913,1
10.0,-77.185,0.317674,34.68,1736594.0,1721466975.7607827,1
10.0,-25.7825,,,1736054.0,1721466975.8216522,1
10.0,31.684999999999995,,,1735463.0,1721466975.8825219,1
10.0,52.352500000000006,,,1735670.0,1721466975.9433913,1
10.0,45.9225,0.318955,34.68,1736612.0,1721466976.0042608,1
10.0,37.77250000000001,,,1738228.5,1721466976.0651305,1
10.0,37.775000000000006,,,1740590.0,1721466976.126,1
10.0,40.276666666666664,,,1742965.5,1721466976.1868696,1
10.0,35.9075,,,1746514.0,1721466976.247739,1
10.0,21.165,0.317674,34.68,1749564.0,1721466976.3086088,1
10.0,7.5275,,,1748414.0,1721466976.3694782,1
10.0,-9.47,,,1741053.0,1721466976.430348,1
10.0,-18.625,,,1735292.5,1721466976.4912174,1
10.0,-25.29,0.316393,34.68,1732232.0,1721466976.552087,1
10.0,-37.489999999999995,,,1731446.5,1721466976.6129565,1
10.0,-7.58,,,1731260.0,1721466976.6738262,1
10.0,45.68,,,1730762.5,1721466976.7346957,1
10.0,65.53333333333335,0.318955,34.68,1730907.0,1721466976.7955651,1
10.0,64.89999999999999,,,1731777.0,1721466976.8564348,1
10.0,43.927499999999995,,,1733512.0,1721466976.9173043,1
10.0,20.71,,,1735627.0,1721466976.978174,1
10.0,-1.5150000000000001,0.318955,34.68,1737710.0,1721466977.0390434,1
10.0,-6.380000000000001,,,1740183.0,1721466977.0999131,1
10.0,-25.0225,,,1742940.0,1721466977.1607826,1
10.0,-51.9925,,,1745545.0,1721466977.2216523,1
10.0,-67.3225,0.317674,34.66,1744250.0,1721466977.2825217,1
10.0,-75.29333333333334,,,1737478.0,1721466977.3433914,1
10.0,-80.15249999999999,,,1733080.0,1721466977.4042609,1
10.0,-98.35749999999999,,,1731897.0,1721466977.4651306,1
10.0,-98.5875,0.313832,34.66,1732060.0,1721466977.526,1
10.0,-31.2025,,,1732209.0,1721466977.5868695,1
10.0,35.725,,,1732309.0,1721466977.6477392,1
10.0,56.629999999999995,,,1732994.5,1721466977.7086086,1
10.0,49.2825,0.315113,34.66,1734085.0,1721466977.7694783,1
10.0,44.445,,,1735652.5,1721466977.8303478,1
10.0,43.6175,,,1737810.0,1721466977.8912175,1
10.0,42.96333333333333,,,1740393.0,1721466977.952087,1
10.0,35.0325,0.316393,34.66,1744405.5,1721466978.0129566,1
10.0,18.655,,,1747174.0,1721466978.073826,1
10.0,5.652500000000001,,,1745755.5,1721466978.1346958,1
10.0,-13.87,,,1738949.0,1721466978.1955652,1
10.0,-34.345,0.315113,34.66,1733630.5,1721466978.256435,1
10.0,-53.330000000000005,,,1731277.0,1721466978.3173044,1
10.0,-78.9375,,,1731223.5,1721466978.3781738,1
10.0,-55.0325,,,1731649.0,1721466978.4390435,1
10.0,8.52,,,1731264.5,1721466978.499913,1
10.0,50.3875,0.316393,34.66,1731741.0,1721466978.5607827,1
10.0,68.99000000000001,,,1732683.5,1721466978.6216521,1
10.0,67.82499999999999,,,1734184.0,1721466978.6825218,1
10.0,66.63,,,1736168.0,1721466978.7433913,1
10.0,66.3825,0.313832,34.66,1739007.0,1721466978.804261,1
10.0,66.77000000000001,,,1741867.0,1721466978.8651304,1
10.0,56.080000000000005,,,1746589.5,1721466978.926,1
10.0,28.417500000000004,,,1749829.0,1721466978.9868696,1
10.0,-21.277499999999996,0.313832,34.66,1745192.0,1721466979.0477393,1
10.0,-65.36666666666666,,,1737886.0,1721466979.1086087,1
10.0,-73.63999999999999,,,1733718.0,1721466979.1694782,1
10.0,-71.32,,,1731609.0,1721466979.2303479,1
10.0,-97.9975,0.316393,34.66,1731571.5,1721466979.2912173,1
10.0,-73.45250000000001,,,1732680.5,1721466979.352087,1
10.0,-8.4725,,,1733648.0,1721466979.4129565,1
10.0,25.175,,,1734817.5,1721466979.4738262,1
10.0,21.672500000000003,0.315113,34.66,1736554.0,1721466979.5346956,1
10.0,18.4875,,,1738435.0,1721466979.5955653,1
10.0,19.064999999999998,,,1740744.0,1721466979.6564348,1
10.0,20.52,,,1742897.0,1721466979.7173045,1
10.0,16.7475,0.313832,34.66,1745723.0,1721466979.778174,1
10.0,2.1174999999999997,,,1748558.5,1721466979.8390436,1
10.0,-7.305000000000001,,,1748220.0,1721466979.899913,1
10.0,-19.832500000000003,,,1741225.0,1721466979.9607825,1
10.0,-35.9125,0.31127,34.66,1736609.0,1721466980.0216522,1
10.0,-51.082499999999996,,,1735068.0,1721466980.0825217,1
10.0,-73.71,,,1735372.0,1721466980.1433914,1
10.0,-59.38,,,1735534.0,1721466980.2042608,1
10.0,-0.7966666666666669,0.316393,34.65,1735304.0,1721466980.2651305,1
10.0,45.192499999999995,,,1736230.0,1721466980.326,1
10.0,60.427499999999995,,,1737946.0,1721466980.3868697,1
10.0,52.53999999999999,,,1740000.0,1721466980.4477391,1
10.0,49.8275,0.315113,34.65,1742671.0,1721466980.5086088,1
10.0,47.612500000000004,,,1745636.0,1721466980.5694783,1
10.0,48.2875,,,1748433.0,1721466980.630348,1
10.0,43.83,,,1751435.0,1721466980.6912174,1
10.0,37.09,0.313832,34.65,1754356.5,1721466980.7520869,1
10.0,30.4575,,,1749798.0,1721466980.8129566,1
10.0,24.209999999999997,,,1743366.0,1721466980.873826,1
10.0,-0.6249999999999996,,,1739926.0,1721466980.9346957,1
10.0,-41.864999999999995,,,1738893.0,1721466980.9955652,1
10.0,-72.53999999999999,0.309989,34.65,1739113.0,1721466981.0564349,1
10.0,-83.89250000000001,,,1738974.5,1721466981.1173043,1
10.0,-53.002500000000005,,,1739103.0,1721466981.178174,1
10.0,-2.83,,,1740006.0,1721466981.2390435,1
10.0,17.095,0.308708,34.66,1741550.0,1721466981.2999132,1
10.0,12.0525,,,1743692.0,1721466981.3607826,1
10.0,7.05,,,1746234.0,1721466981.421652,1
10.0,9.65,,,1748602.5,1721466981.4825218,1
10.0,15.23,0.313832,34.66,1751431.0,1721466981.5433912,1
10.0,15.924999999999999,,,1754110.5,1721466981.604261,1
10.0,5.555,,,1757038.0,1721466981.6651304,1
10.0,-4.7775,,,1755104.5,1721466981.726,1
10.0,-24.105,0.312551,34.66,1747814.0,1721466981.7868695,1
10.0,-38.395,,,1743014.5,1721466981.8477392,1
10.0,-54.71000000000001,,,1741091.0,1721466981.9086087,1
10.0,-76.7425,,,1740864.5,1721466981.9694784,1
10.0,-47.53666666666667,0.312551,34.66,1741044.0,1721466982.0303478,1
10.0,12.9975,,,1740732.5,1721466982.0912175,1
10.0,49.824999999999996,,,1741285.5,1721466982.152087,1
10.0,52.6975,,,1742670.0,1721466982.2129564,1
10.0,42.1,0.308708,34.65,1744803.0,1721466982.2738261,1
10.0,37.1975,,,1747383.0,1721466982.3346956,1
10.0,35.9075,,,1749849.5,1721466982.3955653,1
10.0,30.545,,,1752513.0,1721466982.4564347,1
10.0,19.5375,0.31127,34.65,1755218.5,1721466982.5173044,1
10.0,6.76,,,1756623.0,1721466982.5781739,1
10.0,-4.696666666666666,,,1750128.0,1721466982.6390436,1
10.0,-17.5225,,,1743792.0,1721466982.699913,1
10.0,-27.0,0.31127,34.65,1741540.5,1721466982.7607827,1
10.0,-38.059999999999995,,,1741233.0,1721466982.8216522,1
10.0,-51.6475,,,1741809.0,1721466982.8825219,1
10.0,-7.697500000000002,,,1741862.0,1721466982.9433913,1
10.0,60.190000000000005,0.31127,34.65,1742534.5,1721466983.0042608,1
10.0,53.45249999999999,,,1743609.0,1721466983.0651305,1
10.0,2.1199999999999997,,,1745325.5,1721466983.126,1
10.0,-15.193333333333333,,,1747409.0,1721466983.1868696,1
10.0,-10.04,,,1750138.0,1721466983.247739,1
10.0,-3.7525,0.308708,34.65,1752693.0,1721466983.3086088,1
10.0,7.17,,,1755633.5,1721466983.3694782,1
10.0,3.8225,,,1758777.0,1721466983.430348,1
10.0,-4.7875,,,1760152.0,1721466983.4912174,1
10.0,-15.685,0.307427,34.65,1752774.0,1721466983.552087,1
10.0,-32.985,,,1747627.0,1721466983.6129565,1
10.0,-47.89,,,1745590.0,1721466983.6738262,1
10.0,-71.57500000000002,,,1745051.0,1721466983.7346957,1
10.0,-75.40999999999998,0.309989,34.65,1745066.0,1721466983.7955651,1
10.0,-24.867499999999996,,,1744838.0,1721466983.8564348,1
10.0,31.5475,,,1744898.0,1721466983.9173043,1
10.0,48.71,,,1745710.0,1721466983.978174,1
10.0,40.1325,0.31127,34.65,1747125.0,1721466984.0390434,1
10.0,30.9175,,,1748933.0,1721466984.0999131,1
10.0,28.404999999999998,,,1751249.5,1721466984.1607826,1
10.0,25.6025,,,1753541.0,1721466984.2216523,1
10.0,15.8675,0.308708,34.65,1755982.0,1721466984.2825217,1
10.0,3.263333333333333,,,1758411.0,1721466984.3433914,1
10.0,-14.6025,,,1754044.0,1721466984.4042609,1
10.0,-34.4225,,,1747588.5,1721466984.4651306,1
10.0,-59.845,0.307427,34.65,1743909.0,1721466984.526,1
10.0,-71.5025,,,1743151.5,1721466984.5868695,1
10.0,-14.4775,,,1743450.0,1721466984.6477392,1
10.0,44.137499999999996,,,1743296.0,1721466984.7086086,1
10.0,65.93,0.309989,34.65,1742916.0,1721466984.7694783,1
10.0,58.785,,,1743596.5,1721466984.8303478,1
10.0,41.3775,,,1745028.0,1721466984.8912175,1
10.0,31.709999999999997,,,1747298.0,1721466984.952087,1
10.0,29.950000000000003,0.309989,34.65,1749402.0,1721466985.0129566,1
10.0,17.105,,,1752099.0,1721466985.073826,1
10.0,1.915,,,1753249.5,1721466985.1346958,1
10.0,-20.597500000000004,,,1748077.0,1721466985.1955652,1
10.0,-44.942499999999995,0.309989,34.63,1741538.5,1721466985.256435,1
10.0,-62.415,,,1737904.0,1721466985.3173044,1
10.0,-86.4875,,,1737950.0,1721466985.3781738,1
10.0,-60.74,,,1740627.0,1721466985.4390435,1
10.0,1.7800000000000005,,,1742586.0,1721466985.499913,1
10.0,44.235,0.307427,34.63,1742872.5,1721466985.5607827,1
10.0,57.9375,,,1744844.0,1721466985.6216521,1
10.0,49.855000000000004,,,1747236.5,1721466985.6825218,1
10.0,41.765,,,1750322.0,1721466985.7433913,1
10.0,37.4225,0.306146,34.63,1754847.5,1721466985.804261,1
10.0,35.93,,,1763746.5,1721466985.8651304,1
10.0,22.384999999999998,,,1764309.0,1721466985.926,1
10.0,4.9725,,,1756204.0,1721466985.9868696,1
10.0,-16.3275,0.309989,34.63,1744126.0,1721466986.0477393,1
10.0,-34.733333333333334,,,1737125.0,1721466986.1086087,1
10.0,-47.33,,,1732330.0,1721466986.1694782,1
10.0,-70.76,,,1730165.5,1721466986.2303479,1
10.0,-79.6925,0.31127,34.65,1727840.0,1721466986.2912173,1
10.0,-22.15,,,1726665.5,1721466986.352087,1
10.0,34.0475,,,1726210.5,1721466986.4129565,1
10.0,52.3825,,,1727159.0,1721466986.4738262,1
10.0,43.2375,0.309989,34.65,1729549.5,1721466986.5346956,1
10.0,34.47,,,1732297.0,1721466986.5955653,1
10.0,30.682499999999997,,,1735265.0,1721466986.6564348,1
10.0,32.81,,,1736244.0,1721466986.7173045,1
10.0,26.0925,0.307427,34.65,1739455.0,1721466986.778174,1
10.0,7.565,,,1739763.5,1721466986.8390436,1
10.0,-8.334999999999999,,,1732931.0,1721466986.899913,1
10.0,-29.532500000000002,,,1727604.0,1721466986.9607825,1
10.0,-43.3725,0.306146,34.65,1725330.0,1721466987.0216522,1
10.0,-64.8825,,,1725265.0,1721466987.0825217,1
10.0,-81.315,,,1725850.0,1721466987.1433914,1
10.0,-26.892500000000002,,,1725374.5,1721466987.2042608,1
10.0,29.646666666666665,0.307427,34.65,1725214.0,1721466987.2651305,1
10.0,51.557500000000005,,,1726126.0,1721466987.326,1
10.0,48.0575,,,1728753.5,1721466987.3868697,1
10.0,39.5125,,,1731216.0,1721466987.4477391,1
10.0,35.8525,0.308708,34.65,1734063.5,1721466987.5086088,1
10.0,37.8625,,,1737139.0,1721466987.5694783,1
10.0,31.0,,,1740635.0,1721466987.630348,1
10.0,15.39,,,1741827.0,1721466987.6912174,1
10.0,-2.3225,0.307427,34.65,1736938.5,1721466987.7520869,1
10.0,-21.595,,,1735458.0,1721466987.8129566,1
10.0,-39.02333333333333,,,1736464.5,1721466987.873826,1
10.0,-48.7025,,,1742683.0,1721466987.9346957,1
10.0,-69.4225,,,1745227.0,1721466987.9955652,1
10.0,-79.9925,0.307427,34.65,1742393.5,1721466988.0564349,1
10.0,-23.7175,,,1740716.0,1721466988.1173043,1
10.0,33.5625,,,1740428.5,1721466988.178174,1
10.0,53.529999999999994,,,1741091.0,1721466988.2390435,1
10.0,49.12,0.309989,34.65,1742114.0,1721466988.2999132,1
10.0,41.980000000000004,,,1744265.0,1721466988.3607826,1
10.0,37.79333333333333,,,1746249.0,1721466988.421652,1
10.0,35.36,,,1748375.0,1721466988.4825218,1
10.0,30.029999999999998,0.31127,34.65,1750145.0,1721466988.5433912,1
10.0,16.26,,,1745079.5,1721466988.604261,1
10.0,1.5625,,,1737244.0,1721466988.6651304,1
10.0,-18.3225,,,1732891.0,1721466988.726,1
10.0,-35.2975,0.31127,34.65,1731130.0,1721466988.7868695,1
10.0,-53.477500000000006,,,1731413.5,1721466988.8477392,1
10.0,-74.085,,,1731361.0,1721466988.9086087,1
10.0,-41.167500000000004,,,1731476.5,1721466988.9694784,1
10.0,19.28333333333333,0.308708,34.65,1732558.5,1721466989.0303478,1
10.0,51.775,,,1734394.0,1721466989.0912175,1
10.0,52.4675,,,1736350.5,1721466989.152087,1
10.0,35.5875,,,1739149.0,1721466989.2129564,1
10.0,25.564999999999998,0.307427,34.65,1741876.5,1721466989.2738261,1
10.0,24.6375,,,1744607.0,1721466989.3346956,1
10.0,18.465000000000003,,,1747417.5,1721466989.3955653,1
10.0,2.3975,,,1746610.0,1721466989.4564347,1
10.0,-15.47,0.308708,34.65,1740146.5,1721466989.5173044,1
10.0,-36.1625,,,1736340.0,1721466989.5781739,1
10.0,-48.406666666666666,,,1736825.0,1721466989.6390436,1
10.0,-70.6,,,1739305.0,1721466989.699913,1
10.0,-80.4675,0.309989,34.65,1743399.5,1721466989.7607827,1
10.0,-20.04,,,1747068.0,1721466989.8216522,1
10.0,37.1275,,,1753227.5,1721466989.8825219,1
10.0,54.7775,,,1753407.0,1721466989.9433913,1
10.0,44.435,0.307427,34.65,1752800.0,1721466990.0042608,1
10.0,35.2775,,,1753437.0,1721466990.0651305,1
10.0,31.0925,,,1755370.5,1721466990.126,1
10.0,29.959999999999997,,,1757552.0,1721466990.1868696,1
10.0,21.462500000000002,,,1759179.0,1721466990.247739,1
10.0,3.9399999999999995,0.307427,34.65,1754982.0,1721466990.3086088,1
10.0,-14.905,,,1748312.0,1721466990.3694782,1
10.0,-37.7325,,,1744067.0,1721466990.430348,1
10.0,-51.6425,,,1743457.0,1721466990.4912174,1
10.0,-76.05000000000001,0.309989,34.65,1743972.5,1721466990.552087,1
10.0,-87.245,,,1744192.0,1721466990.6129565,1
10.0,-26.07,,,1745062.5,1721466990.6738262,1
10.0,34.7175,,,1746346.0,1721466990.7346957,1
10.0,54.166666666666664,0.308708,34.65,1748516.0,1721466990.7955651,1
10.0,51.2625,,,1750714.0,1721466990.8564348,1
10.0,41.489999999999995,,,1753770.0,1721466990.9173043,1
10.0,36.9925,,,1756633.0,1721466990.978174,1
10.0,37.614999999999995,0.31127,34.65,1759685.5,1721466991.0390434,1
10.0,29.139999999999997,,,1762538.0,1721466991.0999131,1
10.0,12.879999999999999,,,1758059.5,1721466991.1607826,1
10.0,-3.2325000000000004,,,1751320.0,1721466991.2216523,1
10.0,-28.5925,0.307427,34.63,1747731.5,1721466991.2825217,1
10.0,-43.53666666666667,,,1746376.0,1721466991.3433914,1
10.0,-54.0475,,,1746893.5,1721466991.4042609,1
10.0,-79.7675,,,1746749.0,1721466991.4651306,1
10.0,-62.957499999999996,0.307427,34.63,1746734.0,1721466991.526,1
10.0,5.9375,,,1747356.0,1721466991.5868695,1
10.0,47.080000000000005,,,1748728.5,1721466991.6477392,1
10.0,52.0825,,,1751866.0,1721466991.7086086,1
10.0,40.235,0.308708,34.63,1756809.0,1721466991.7694783,1
10.0,33.847500000000004,,,1765919.0,1721466991.8303478,1
10.0,31.7025,,,1774226.0,1721466991.8912175,1
10.0,29.13,,,1776018.0,1721466991.952087,1
10.0,15.652500000000002,0.31127,34.63,1773715.0,1721466992.0129566,1
10.0,1.4224999999999999,,,1764678.5,1721466992.073826,1
10.0,-15.357500000000002,,,1759208.0,1721466992.1346958,1
10.0,-35.9925,,,1756639.5,1721466992.1955652,1
10.0,-54.2225,0.31127,34.65,1756148.0,1721466992.256435,1
10.0,-83.42750000000001,,,1756159.5,1721466992.3173044,1
10.0,-71.655,,,1756036.0,1721466992.3781738,1
10.0,-0.5000000000000009,,,1757067.0,1721466992.4390435,1
10.0,45.11666666666667,,,1758596.0,1721466992.499913,1
10.0,59.8675,0.321517,34.65,1760765.5,1721466992.5607827,1
10.0,49.43749999999999,,,1763454.0,1721466992.6216521,1
10.0,38.9775,,,1767022.0,1721466992.6825218,1
10.0,34.765,,,1768015.0,1721466992.7433913,1
10.0,35.5775,0.307427,34.65,1771558.5,1721466992.804261,1
10.0,22.5225,,,1775136.0,1721466992.8651304,1
10.0,9.99,,,1774364.5,1721466992.926,1
10.0,-6.4175,,,1767594.0,1721466992.9868696,1
10.0,-26.35,0.309989,34.65,1762950.0,1721466993.0477393,1
10.0,-37.58,,,1760745.0,1721466993.1086087,1
10.0,-65.3375,,,1761186.0,1721466993.1694782,1
10.0,-91.77000000000001,,,1761909.0,1721466993.2303479,1
10.0,-38.565000000000005,0.31127,34.63,1762105.0,1721466993.2912173,1
10.0,27.6675,,,1763050.0,1721466993.352087,1
10.0,51.945,,,1764623.0,1721466993.4129565,1
10.0,45.43000000000001,,,1766930.0,1721466993.4738262,1
10.0,37.165000000000006,0.308708,34.63,1769731.0,1721466993.5346956,1
10.0,35.3,,,1772271.0,1721466993.5955653,1
10.0,36.160000000000004,,,1774652.0,1721466993.6564348,1
10.0,26.926666666666666,,,1778270.5,1721466993.7173045,1
10.0,14.625,0.308708,34.63,1782604.0,1721466993.778174,1
10.0,0.4399999999999997,,,1787876.5,1721466993.8390436,1
10.0,-20.552500000000002,,,1792323.0,1721466993.899913,1
10.0,-41.5225,,,1799013.0,1721466993.9607825,1
10.0,-55.1525,0.308708,34.63,1806148.0,1721466994.0216522,1
10.0,-82.57249999999999,,,1808863.0,1721466994.0825217,1
10.0,-74.4425,,,1799876.0,1721466994.1433914,1
10.0,-5.4025,,,1790952.0,1721466994.2042608,1
10.0,35.053333333333335,0.309989,34.61,1784460.0,1721466994.2651305,1
10.0,41.775000000000006,,,1781977.0,1721466994.326,1
10.0,31.2275,,,1780742.0,1721466994.3868697,1
10.0,23.075,,,1780381.0,1721466994.4477391,1
10.0,23.8175,0.31127,34.61,1780007.0,1721466994.5086088,1
10.0,21.2525,,,1780275.5,1721466994.5694783,1
10.0,9.372499999999999,,,1781023.5,1721466994.630348,1
10.0,-9.895,,,1777341.0,1721466994.6912174,1
10.0,-29.802500000000002,0.308708,34.61,1769824.5,1721466994.7520869,1
10.0,-50.7525,,,1763661.0,1721466994.8129566,1
10.0,-73.08666666666666,,,1761703.5,1721466994.873826,1
10.0,-52.86,,,1760663.0,1721466994.9346957,1
10.0,13.6725,,,1760413.5,1721466994.9955652,1
10.0,53.11,0.307427,34.61,1761827.0,1721466995.0564349,1
10.0,60.0925,,,1763047.0,1721466995.1173043,1
10.0,53.10000000000001,,,1765437.0,1721466995.178174,1
10.0,49.959999999999994,,,1768261.0,1721466995.2390435,1
10.0,52.38,0.322798,34.61,1771371.0,1721466995.2999132,1
10.0,48.4325,,,1774136.5,1721466995.3607826,1
10.0,34.31,,,1776906.0,1721466995.421652,1
10.0,14.719999999999999,,,1773072.0,1721466995.4825218,1
10.0,-29.645,0.309989,34.61,1765075.0,1721466995.5433912,1
10.0,-111.00999999999999,,,1759957.5,1721466995.604261,1
10.0,-162.2475,,,1757349.0,1721466995.6651304,1
10.0,-120.59,,,1756547.0,1721466995.726,1
10.0,-26.76,0.31127,34.61,1755326.5,1721466995.7868695,1
10.0,31.42,,,1754624.0,1721466995.8477392,1
10.0,48.252500000000005,,,1754835.0,1721466995.9086087,1
10.0,45.7425,,,1756213.0,1721466995.9694784,1
10.0,44.830000000000005,0.31127,34.61,1758448.5,1721466996.0303478,1
10.0,42.947500000000005,,,1760036.0,1721466996.0912175,1
10.0,34.769999999999996,,,1761984.5,1721466996.152087,1
10.0,20.445,,,1762401.0,1721466996.2129564,1
10.0,2.5874999999999995,0.307427,34.63,1755153.0,1721466996.2738261,1
10.0,-21.490000000000002,,,1745512.0,1721466996.3346956,1
10.0,-41.415000000000006,,,1739172.5,1721466996.3955653,1
10.0,-67.4375,,,1734899.0,1721466996.4564347,1
10.0,-89.7825,0.309989,34.63,1732947.0,1721466996.5173044,1
10.0,-41.9625,,,1730950.0,1721466996.5781739,1
10.0,22.223333333333333,,,1729462.0,1721466996.6390436,1
10.0,57.317499999999995,,,1729172.5,1721466996.699913,1
10.0,64.71000000000001,0.312551,34.63,1730099.0,1721466996.7607827,1
10.0,58.2625,,,1731507.5,1721466996.8216522,1
10.0,56.2575,,,1733126.0,1721466996.8825219,1
10.0,58.0075,,,1735087.0,1721466996.9433913,1
10.0,57.04,0.312551,34.63,1737152.0,1721466997.0042608,1
10.0,48.86,,,1735522.5,1721466997.0651305,1
10.0,40.379999999999995,,,1726046.0,1721466997.126,1
10.0,38.37333333333333,,,1717048.5,1721466997.1868696,1
10.0,33.7925,,,1711374.0,1721466997.247739,1
10.0,-7.6899999999999995,0.309989,34.63,1708577.5,1721466997.3086088,1
10.0,-54.8075,,,1706597.0,1721466997.3694782,1
10.0,-32.835,,,1704518.0,1721466997.430348,1
10.0,17.5575,,,1703062.0,1721466997.4912174,1
10.0,7.7525,0.308708,34.63,1702822.0,1721466997.552087,1
10.0,-24.597500000000004,,,1703672.0,1721466997.6129565,1
10.0,-28.6025,,,1704758.5,1721466997.6738262,1
10.0,-19.825000000000003,,,1706441.0,1721466997.7346957,1
10.0,-15.689999999999998,0.31127,34.63,1708028.0,1721466997.7955651,1
10.0,-21.0825,,,1708992.5,1721466997.8564348,1
10.0,-30.4075,,,1701709.0,1721466997.9173043,1
10.0,-43.3775,,,1692156.0,1721466997.978174,1
10.0,-60.7875,0.312551,34.63,1686446.0,1721466998.0390434,1
10.0,-77.30749999999999,,,1684292.5,1721466998.0999131,1
10.0,-100.76249999999999,,,1683085.0,1721466998.1607826,1
10.0,-80.64750000000001,,,1681745.5,1721466998.2216523,1
10.0,-3.2399999999999984,0.312551,34.61,1680751.0,1721466998.2825217,1
10.0,46.88666666666666,,,1680966.5,1721466998.3433914,1
10.0,61.372499999999995,,,1682014.0,1721466998.4042609,1
10.0,53.940000000000005,,,1684074.5,1721466998.4651306,1
10.0,47.0775,0.31127,34.61,1686336.0,1721466998.526,1
10.0,44.684999999999995,,,1688674.5,1721466998.5868695,1
10.0,38.5775,,,1691451.0,1721466998.6477392,1
10.0,24.6425,,,1692766.0,1721466998.7086086,1
10.0,4.7924999999999995,0.31127,34.61,1685416.0,1721466998.7694783,1
10.0,-15.43,,,1675433.0,1721466998.8303478,1
10.0,-26.832499999999996,,,1668215.0,1721466998.8912175,1
10.0,-46.17666666666667,,,1665246.5,1721466998.952087,1
10.0,-43.6575,0.313832,34.61,1664332.0,1721466999.0129566,1
10.0,30.572499999999998,,,1663094.0,1721466999.073826,1
10.0,101.13,,,1661795.5,1721466999.1346958,1
10.0,110.23,,,1661599.0,1721466999.1955652,1
10.0,63.5075,0.313832,34.63,1662352.5,1721466999.256435,1
10.0,16.337500000000002,,,1663926.0,1721466999.3173044,1
10.0,-11.967500000000001,,,1665941.0,1721466999.3781738,1
10.0,-30.69,,,1668439.0,1721466999.4390435,1
10.0,-41.88,,,1671287.0,1721466999.499913,1
10.0,-47.465,0.31127,34.63,1671226.0,1721466999.5607827,1
10.0,-58.6625,,,1660898.0,1721466999.6216521,1
10.0,-69.4425,,,1651287.0,1721466999.6825218,1
10.0,-86.19999999999999,,,1645771.0,1721466999.7433913,1
10.0,-105.715,0.309989,34.63,1643183.0,1721466999.804261,1
10.0,-56.045,,,1641891.0,1721466999.8651304,1
10.0,24.575,,,1640390.0,1721466999.926,1
10.0,64.22,,,1639599.5,1721466999.9868696,1
10.0,61.80499999999999,0.309989,34.63,1639750.0,1721467000.0477393,1
10.0,49.21666666666667,,,1641116.0,1721467000.1086087,1
10.0,41.6575,,,1643214.0,1721467000.1694782,1
10.0,39.2475,,,1645281.5,1721467000.2303479,1
10.0,28.1425,0.312551,34.61,1647676.0,1721467000.2912173,1
10.0,8.889999999999999,,,1650147.0,1721467000.352087,1
10.0,-14.017499999999998,,,1646187.0,1721467000.4129565,1
10.0,-36.8575,,,1636285.0,1721467000.4738262,1
10.0,-55.715,0.315113,34.61,1629387.0,1721467000.5346956,1
10.0,-89.2775,,,1627012.5,1721467000.5955653,1
10.0,-72.64250000000001,,,1626796.0,1721467000.6564348,1
10.0,3.4933333333333336,,,1626342.0,1721467000.7173045,1
10.0,69.5675,0.31127,34.61,1626452.5,1721467000.778174,1
10.0,103.525,,,1627647.0,1721467000.8390436,1
10.0,109.365,,,1629900.5,1721467000.899913,1
10.0,114.72,,,1632503.0,1721467000.9607825,1
10.0,97.0375,0.31127,34.61,1636171.5,1721467001.0216522,1
10.0,56.375,,,1639478.0,1721467001.0825217,1
10.0,1.4474999999999998,,,1642968.0,1721467001.1433914,1
10.0,-43.449999999999996,,,1642908.0,1721467001.2042608,1
10.0,-79.25666666666666,0.315113,34.61,1633066.5,1721467001.2651305,1
10.0,-100.5425,,,1624928.0,1721467001.326,1
10.0,-111.28,,,1620686.5,1721467001.3868697,1
10.0,-131.355,,,1619689.0,1721467001.4477391,1
10.0,-94.7725,0.315113,34.61,1620049.0,1721467001.5086088,1
10.0,-0.1900000000000004,,,1619972.5,1721467001.5694783,1
10.0,58.7,,,1621095.0,1721467001.630348,1
10.0,69.375,,,1623204.0,1721467001.6912174,1
10.0,59.302499999999995,0.315113,34.61,1626299.0,1721467001.7520869,1
10.0,50.0125,,,1629421.0,1721467001.8129566,1
10.0,42.86333333333334,,,1632733.0,1721467001.873826,1
10.0,38.8175,,,1636631.5,1721467001.9346957,1
10.0,19.8575,,,1640201.0,1721467001.9955652,1
10.0,1.39,0.31127,34.61,1634888.0,1721467002.0564349,1
10.0,-21.5,,,1625433.0,1721467002.1173043,1
10.0,-38.7625,,,1619882.0,1721467002.178174,1
10.0,-60.115,,,1617878.0,1721467002.2390435,1
10.0,-83.13499999999999,0.309989,34.61,1618488.0,1721467002.2999132,1
10.0,-37.26,,,1618789.0,1721467002.3607826,1
10.0,37.32333333333333,,,1619631.0,1721467002.421652,1
10.0,79.5325,,,1621184.5,1721467002.4825218,1
10.0,84.02250000000001,0.31127,34.61,1623927.0,1721467002.5433912,1
10.0,68.82499999999999,,,1626972.0,1721467002.604261,1
10.0,61.8425,,,1630591.0,1721467002.6651304,1
10.0,56.832499999999996,,,1634475.5,1721467002.726,1
10.0,19.8225,0.312551,34.61,1638503.0,1721467002.7868695,1
10.0,-32.8925,,,1640970.0,1721467002.8477392,1
10.0,-51.89,,,1635355.0,1721467002.9086087,1
10.0,-65.3575,,,1628535.0,1721467002.9694784,1
10.0,-74.15333333333332,0.31127,34.61,1625071.0,1721467003.0303478,1
10.0,-78.2775,,,1625821.0,1721467003.0912175,1
10.0,-105.3925,,,1627176.0,1721467003.152087,1
10.0,-94.155,,,1628387.0,1721467003.2129564,1
10.0,-6.795,0.312551,34.63,1630134.5,1721467003.2738261,1
10.0,56.584999999999994,,,1632936.0,1721467003.3346956,1
10.0,69.6725,,,1636541.5,1721467003.3955653,1
10.0,60.8425,,,1640738.0,1721467003.4564347,1
10.0,54.95,0.309989,34.63,1644981.5,1721467003.5173044,1
10.0,48.917500000000004,,,1650614.0,1721467003.5781739,1
10.0,44.64666666666667,,,1654965.0,1721467003.6390436,1
10.0,30.505000000000003,,,1656710.5,1721467003.699913,1
10.0,8.4125,0.31127,34.63,1650321.0,1721467003.7607827,1
10.0,-14.48,,,1644288.0,1721467003.8216522,1
10.0,-38.7125,,,1641594.0,1721467003.8825219,1
10.0,-56.2825,,,1642121.0,1721467003.9433913,1
10.0,-84.77,0.315113,34.63,1643606.0,1721467004.0042608,1
10.0,-83.58749999999999,,,1645011.5,1721467004.0651305,1
10.0,-7.475,,,1646795.0,1721467004.126,1
10.0,51.78,,,1649330.0,1721467004.1868696,1
10.0,71.77,,,1652828.0,1721467004.247739,1
10.0,66.9675,0.315113,34.59,1656569.5,1721467004.3086088,1
10.0,62.385,,,1660817.0,1721467004.3694782,1
10.0,70.2975,,,1664926.0,1721467004.430348,1
10.0,65.32,,,1669357.0,1721467004.4912174,1
10.0,40.0775,0.31127,34.59,1673253.0,1721467004.552087,1
10.0,14.165,,,1670883.0,1721467004.6129565,1
10.0,-29.2975,,,1664899.0,1721467004.6738262,1
10.0,-90.8225,,,1661959.0,1721467004.7346957,1
10.0,-137.8033333333333,0.312551,34.59,1662510.5,1721467004.7955651,1
10.0,-132.6125,,,1664053.0,1721467004.8564348,1
10.0,-45.68000000000001,,,1665343.0,1721467004.9173043,1
10.0,30.305,,,1667461.0,1721467004.978174,1
10.0,50.2325,0.313832,34.59,1669619.0,1721467005.0390434,1
10.0,38.214999999999996,,,1672771.0,1721467005.0999131,1
10.0,31.97,,,1673895.0,1721467005.1607826,1
10.0,31.880000000000003,,,1677406.0,1721467005.2216523,1
10.0,27.542500000000004,0.313832,34.61,1680914.0,1721467005.2825217,1
10.0,11.066666666666668,,,1684806.0,1721467005.3433914,1
10.0,-6.3225,,,1685010.0,1721467005.4042609,1
10.0,-32.0625,,,1678894.5,1721467005.4651306,1
10.0,-50.7775,0.315113,34.61,1674559.0,1721467005.526,1
10.0,-70.7,,,1674508.0,1721467005.5868695,1
10.0,-98.89250000000001,,,1675837.0,1721467005.6477392,1
10.0,-54.37,,,1677168.0,1721467005.7086086,1
10.0,23.174999999999997,0.31127,34.61,1678517.0,1721467005.7694783,1
10.0,58.714999999999996,,,1680341.0,1721467005.8303478,1
10.0,56.4375,,,1684123.0,1721467005.8912175,1
10.0,45.38666666666666,,,1687490.0,1721467005.952087,1
10.0,40.16,0.313832,34.61,1691316.0,1721467006.0129566,1
10.0,37.645,,,1694930.0,1721467006.073826,1
10.0,31.075,,,1699077.0,1721467006.1346958,1
10.0,12.287500000000001,,,1702256.0,1721467006.1955652,1
10.0,-7.2225,0.313832,34.59,1697362.5,1721467006.256435,1
10.0,-28.339999999999996,,,1690907.0,1721467006.3173044,1
10.0,-56.802499999999995,,,1688339.0,1721467006.3781738,1
10.0,-63.057500000000005,,,1688397.0,1721467006.4390435,1
10.0,-23.423333333333332,,,1689684.0,1721467006.499913,1
10.0,19.5525,0.313832,34.59,1690615.0,1721467006.5607827,1
10.0,26.740000000000002,,,1691792.0,1721467006.6216521,1
10.0,12.925,,,1693692.0,1721467006.6825218,1
10.0,17.689999999999998,,,1696477.0,1721467006.7433913,1
10.0,21.357499999999998,0.315113,34.59,1699428.0,1721467006.804261,1
10.0,18.16,,,1702873.0,1721467006.8651304,1
10.0,6.904999999999999,,,1705508.5,1721467006.926,1
10.0,-16.8025,,,1701329.0,1721467006.9868696,1
10.0,-35.315,0.312551,34.59,1694357.5,1721467007.0477393,1
10.0,-59.403333333333336,,,1690421.0,1721467007.1086087,1
10.0,-83.96,,,1689822.0,1721467007.1694782,1
10.0,-45.5675,,,1690397.0,1721467007.2303479,1
10.0,29.307499999999997,0.31127,34.61,1690386.5,1721467007.2912173,1
10.0,61.99,,,1690489.0,1721467007.352087,1
10.0,52.332499999999996,,,1691976.5,1721467007.4129565,1
10.0,38.6075,,,1694246.0,1721467007.4738262,1
10.0,37.7525,0.315113,34.61,1696827.0,1721467007.5346956,1
10.0,27.855,,,1700755.0,1721467007.5955653,1
10.0,11.924999999999999,,,1704195.0,1721467007.6564348,1
10.0,-12.626666666666665,,,1703227.0,1721467007.7173045,1
10.0,-34.9775,0.316393,34.61,1695861.0,1721467007.778174,1
10.0,-60.0875,,,1690771.5,1721467007.8390436,1
10.0,-93.7925,,,1689022.0,1721467007.899913,1
10.0,-72.5575,,,1689823.0,1721467007.9607825,1
10.0,9.5425,0.312551,34.61,1690737.0,1721467008.0216522,1
10.0,64.3075,,,1691608.0,1721467008.0825217,1
10.0,77.715,,,1692893.0,1721467008.1433914,1
10.0,65.15,,,1695078.0,1721467008.2042608,1
10.0,50.96666666666667,0.312551,34.61,1698140.0,1721467008.2651305,1
10.0,39.435,,,1701439.0,1721467008.326,1
10.0,25.5225,,,1705951.5,1721467008.3868697,1
10.0,6.365,,,1707030.0,1721467008.4477391,1
10.0,-21.335,0.312551,34.61,1699192.5,1721467008.5086088,1
10.0,-47.6675,,,1692172.0,1721467008.5694783,1
10.0,-77.1625,,,1688915.5,1721467008.630348,1
10.0,-101.38250000000001,,,1688531.0,1721467008.6912174,1
10.0,-49.822500000000005,0.316393,34.61,1689783.0,1721467008.7520869,1
10.0,31.185000000000002,,,1694613.0,1721467008.8129566,1
10.0,67.39333333333333,,,1701548.5,1721467008.873826,1
10.0,68.955,,,1710143.0,1721467008.9346957,1
10.0,56.892500000000005,,,1718888.0,1721467008.9955652,1
10.0,51.1025,0.330484,34.61,1727591.0,1721467009.0564349,1
10.0,46.025000000000006,,,1734459.0,1721467009.1173043,1
10.0,29.672500000000003,,,1735911.0,1721467009.178174,1
10.0,7.61,,,1730586.0,1721467009.2390435,1
10.0,-21.17,0.31127,34.57,1715363.0,1721467009.2999132,1
10.0,-46.84,,,1705411.0,1721467009.3607826,1
10.0,-67.17,,,1700683.0,1721467009.421652,1
10.0,-96.995,,,1700199.0,1721467009.4825218,1
10.0,-76.415,0.312551,34.57,1700854.0,1721467009.5433912,1
10.0,6.527500000000001,,,1702651.0,1721467009.604261,1
10.0,58.78,,,1704185.0,1721467009.6651304,1
10.0,60.365,,,1706895.0,1721467009.726,1
10.0,46.585,0.315113,34.57,1709897.0,1721467009.7868695,1
10.0,44.04749999999999,,,1712916.0,1721467009.8477392,1
10.0,40.637499999999996,,,1716611.5,1721467009.9086087,1
10.0,29.9175,,,1721772.0,1721467009.9694784,1
10.0,14.26,0.316393,34.57,1721861.0,1721467010.0303478,1
10.0,-5.8025,,,1714649.0,1721467010.0912175,1
10.0,-22.940000000000005,,,1709156.5,1721467010.152087,1
10.0,-37.835,,,1707228.0,1721467010.2129564,1
10.0,-50.9825,0.315113,34.61,1708342.0,1721467010.2738261,1
10.0,-13.6375,,,1708750.0,1721467010.3346956,1
10.0,61.215,,,1708170.0,1721467010.3955653,1
10.0,100.895,,,1708560.0,1721467010.4564347,1
10.0,90.11500000000001,0.312551,34.61,1710371.0,1721467010.5173044,1
10.0,56.739999999999995,,,1713129.0,1721467010.5781739,1
10.0,10.696666666666667,,,1715858.0,1721467010.6390436,1
10.0,-28.049999999999997,,,1718914.0,1721467010.699913,1
10.0,-35.845,0.312551,34.61,1722215.0,1721467010.7607827,1
10.0,-39.595,,,1721488.0,1721467010.8216522,1
10.0,-48.9525,,,1712737.0,1721467010.8825219,1
10.0,-50.83500000000001,,,1705027.0,1721467010.9433913,1
10.0,-56.98,0.315113,34.61,1700167.0,1721467011.0042608,1
10.0,-71.1375,,,1698477.0,1721467011.0651305,1
10.0,-84.37,,,1697588.0,1721467011.126,1
10.0,-112.29,,,1697139.0,1721467011.1868696,1
10.0,-95.5875,,,1697184.0,1721467011.247739,1
10.0,-6.7675,0.316393,34.61,1697680.5,1721467011.3086088,1
10.0,56.8725,,,1700323.0,1721467011.3694782,1
10.0,69.175,,,1702755.0,1721467011.430348,1
10.0,57.699999999999996,,,1705730.5,1721467011.4912174,1
10.0,50.817499999999995,0.317674,34.61,1708672.0,1721467011.552087,1
10.0,46.33,,,1711948.0,1721467011.6129565,1
10.0,41.49999999999999,,,1715361.0,1721467011.6738262,1
10.0,24.115000000000002,,,1718352.5,1721467011.7346957,1
10.0,8.006666666666666,0.329203,34.61,1715617.0,1721467011.7955651,1
10.0,-9.9025,,,1707959.0,1721467011.8564348,1
10.0,-29.7175,,,1702784.0,1721467011.9173043,1
10.0,-43.9025,,,1702522.5,1721467011.978174,1
10.0,-69.8675,0.312551,34.61,1705570.0,1721467012.0390434,1
10.0,-58.190000000000005,,,1707346.0,1721467012.0999131,1
10.0,24.9775,,,1709277.0,1721467012.1607826,1
10.0,89.705,,,1711453.0,1721467012.2216523,1
10.0,92.33500000000001,0.315113,34.59,1713397.5,1721467012.2825217,1
10.0,57.73,,,1715810.0,1721467012.3433914,1
10.0,13.069999999999999,,,1718224.5,1721467012.4042609,1
10.0,-14.775000000000002,,,1720799.0,1721467012.4651306,1
10.0,-17.555,0.316393,34.59,1723432.5,1721467012.526,1
10.0,-30.534999999999997,,,1726385.0,1721467012.5868695,1
10.0,-40.6725,,,1722381.0,1721467012.6477392,1
10.0,-53.8975,,,1714903.0,1721467012.7086086,1
10.0,-61.4375,0.316393,34.59,1711370.0,1721467012.7694783,1
10.0,-78.4675,,,1710937.0,1721467012.8303478,1
10.0,-95.135,,,1711487.0,1721467012.8912175,1
10.0,-43.67666666666667,,,1712245.0,1721467012.952087,1
10.0,29.89,0.315113,34.59,1712544.5,1721467013.0129566,1
10.0,69.755,,,1713882.0,1721467013.073826,1
10.0,68.8425,,,1716326.5,1721467013.1346958,1
10.0,57.2375,,,1719212.0,1721467013.1955652,1
10.0,46.255,0.313832,34.59,1722580.0,1721467013.256435,1
10.0,40.144999999999996,,,1725649.0,1721467013.3173044,1
10.0,22.642500000000002,,,1728921.0,1721467013.3781738,1
10.0,0.7124999999999999,,,1729395.5,1721467013.4390435,1
10.0,-20.3,,,1722337.0,1721467013.499913,1
10.0,-43.2175,0.316393,34.59,1717416.0,1721467013.5607827,1
10.0,-59.785000000000004,,,1715649.0,1721467013.6216521,1
10.0,-88.1825,,,1716781.0,1721467013.6825218,1
10.0,-90.48249999999999,,,1717635.0,1721467013.7433913,1
10.0,-11.06,0.316393,34.59,1718388.5,1721467013.804261,1
10.0,56.8725,,,1719786.0,1721467013.8651304,1
10.0,76.9375,,,1721613.5,1721467013.926,1
10.0,68.1025,,,1724348.0,1721467013.9868696,1
10.0,55.99,0.316393,34.59,1727681.0,1721467014.0477393,1
10.0,48.88999999999999,,,1731044.0,1721467014.1086087,1
10.0,43.339999999999996,,,1734495.5,1721467014.1694782,1
10.0,25.32,,,1738365.0,1721467014.2303479,1
10.0,1.875,0.315113,34.59,1736049.0,1721467014.2912173,1
10.0,-26.595000000000002,,,1728905.0,1721467014.352087,1
10.0,-48.555,,,1724440.5,1721467014.4129565,1
10.0,-71.18,,,1723198.0,1721467014.4738262,1
10.0,-97.4725,0.316393,34.59,1724602.0,1721467014.5346956,1
10.0,-51.947500000000005,,,1726732.0,1721467014.5955653,1
10.0,28.22,,,1730976.0,1721467014.6564348,1
10.0,60.629999999999995,,,1736405.0,1721467014.7173045,1
10.0,56.1175,0.318955,34.59,1737585.0,1721467014.778174,1
10.0,41.085,,,1740343.5,1721467014.8390436,1
10.0,36.38,,,1743569.0,1721467014.899913,1
10.0,33.1575,,,1749067.0,1721467014.9607825,1
10.0,19.015,0.317674,34.59,1746473.0,1721467015.0216522,1
10.0,0.004999999999999893,,,1740633.0,1721467015.0825217,1
10.0,-24.807499999999997,,,1727510.0,1721467015.1433914,1
10.0,-47.4375,,,1716839.5,1721467015.2042608,1
10.0,-69.22666666666667,0.316393,34.59,1711496.0,1721467015.2651305,1
10.0,-95.0975,,,1711510.5,1721467015.326,1
10.0,-62.355000000000004,,,1712648.0,1721467015.3868697,1
10.0,19.4975,,,1714181.0,1721467015.4477391,1
10.0,62.410000000000004,0.315113,34.59,1713247.5,1721467015.5086088,1
10.0,61.78,,,1713313.0,1721467015.5694783,1
10.0,48.154999999999994,,,1714867.0,1721467015.630348,1
10.0,40.965,,,1716569.0,1721467015.6912174,1
10.0,35.19,0.318955,34.59,1718850.0,1721467015.7520869,1
10.0,27.849999999999998,,,1721034.0,1721467015.8129566,1
10.0,9.32,,,1719396.0,1721467015.873826,1
10.0,-4.3775,,,1710679.0,1721467015.9346957,1
10.0,-20.104999999999997,,,1704556.0,1721467015.9955652,1
10.0,-41.792500000000004,0.320236,34.59,1701729.0,1721467016.0564349,1
10.0,-30.66,,,1701656.0,1721467016.1173043,1
10.0,-8.945,,,1702118.0,1721467016.178174,1
10.0,1.2925,,,1702037.0,1721467016.2390435,1
10.0,16.2975,0.318955,34.59,1703144.0,1721467016.2999132,1
10.0,13.584999999999999,,,1704797.0,1721467016.3607826,1
10.0,22.47,,,1707110.5,1721467016.421652,1
10.0,34.5075,,,1709469.0,1721467016.4825218,1
10.0,30.064999999999998,0.315113,34.59,1712657.5,1721467016.5433912,1
10.0,14.4975,,,1712203.0,1721467016.604261,1
10.0,-9.145,,,1703820.5,1721467016.6651304,1
10.0,-34.795,,,1696876.0,1721467016.726,1
10.0,-57.957499999999996,0.315113,34.59,1693294.0,1721467016.7868695,1
10.0,-89.10749999999999,,,1692006.0,1721467016.8477392,1
10.0,-51.44500000000001,,,1692023.0,1721467016.9086087,1
10.0,24.31,,,1691462.0,1721467016.9694784,1
10.0,50.94333333333333,0.320236,34.59,1690725.5,1721467017.0303478,1
10.0,40.9325,,,1690585.0,1721467017.0912175,1
10.0,23.67,,,1691625.5,1721467017.152087,1
10.0,19.045,,,1693643.0,1721467017.2129564,1
10.0,15.015,0.318955,34.59,1695627.0,1721467017.2738261,1
10.0,6.05,,,1699107.5,1721467017.3346956,1
10.0,-18.3575,,,1700792.0,1721467017.3955653,1
10.0,-38.682500000000005,,,1693530.0,1721467017.4564347,1
10.0,-68.755,0.316393,34.59,1685598.0,1721467017.5173044,1
10.0,-86.03500000000001,,,1681423.5,1721467017.5781739,1
10.0,-34.413333333333334,,,1680142.0,1721467017.6390436,1
10.0,37.03,,,1680220.0,1721467017.699913,1
10.0,74.08500000000001,0.316393,34.59,1679878.5,1721467017.7607827,1
10.0,66.81,,,1680367.0,1721467017.8216522,1
10.0,47.0175,,,1682025.0,1721467017.8825219,1
10.0,34.69,,,1684245.0,1721467017.9433913,1
10.0,28.575,0.318955,34.59,1687246.5,1721467018.0042608,1
10.0,14.5,,,1690456.0,1721467018.0651305,1
10.0,-12.0,,,1689110.0,1721467018.126,1
10.0,-38.96,,,1681310.0,1721467018.1868696,1
10.0,-57.9125,,,1676011.5,1721467018.247739,1
10.0,-86.5275,0.320236,34.57,1673519.0,1721467018.3086088,1
10.0,-107.3425,,,1673894.5,1721467018.3694782,1
10.0,-46.1625,,,1675561.0,1721467018.430348,1
10.0,38.9075,,,1679120.5,1721467018.4912174,1
10.0,78.7375,0.321517,34.57,1682933.0,1721467018.552087,1
10.0,73.225,,,1685974.5,1721467018.6129565,1
10.0,62.20249999999999,,,1691409.0,1721467018.6738262,1
10.0,52.775,,,1695527.0,1721467018.7346957,1
10.0,43.40333333333333,0.317674,34.57,1695716.0,1721467018.7955651,1
10.0,26.772499999999997,,,1696143.5,1721467018.8564348,1
10.0,5.435,,,1696978.0,1721467018.9173043,1
10.0,-20.630000000000003,,,1688223.0,1721467018.978174,1
10.0,-50.5125,0.317674,34.57,1680829.0,1721467019.0390434,1
10.0,-67.44749999999999,,,1677419.5,1721467019.0999131,1
10.0,-102.645,,,1676970.0,1721467019.1607826,1
10.0,-95.91499999999999,,,1677808.5,1721467019.2216523,1
10.0,-8.612499999999999,0.317674,34.59,1679026.5,1721467019.2825217,1
10.0,49.73333333333333,,,1680809.0,1721467019.3433914,1
10.0,66.905,,,1683570.0,1721467019.4042609,1
10.0,56.9425,,,1686599.0,1721467019.4651306,1
10.0,47.209999999999994,0.320236,34.59,1690433.0,1721467019.526,1
10.0,45.78,,,1694140.0,1721467019.5868695,1
10.0,39.4075,,,1696920.0,1721467019.6477392,1
10.0,22.392500000000002,,,1699559.0,1721467019.7086086,1
10.0,-1.5450000000000004,0.320236,34.59,1702470.0,1721467019.7694783,1
10.0,-30.895000000000003,,,1699571.5,1721467019.8303478,1
10.0,-51.2075,,,1691841.5,1721467019.8912175,1
10.0,-77.57333333333332,,,1689413.0,1721467019.952087,1
10.0,-88.6425,0.320236,34.59,1690165.0,1721467020.0129566,1
10.0,-21.314999999999998,,,1691523.0,1721467020.073826,1
10.0,52.295,,,1692435.5,1721467020.1346958,1
10.0,74.285,,,1693753.0,1721467020.1955652,1
10.0,61.81750000000001,0.321517,34.59,1696006.5,1721467020.256435,1
10.0,52.47,,,1699907.0,1721467020.3173044,1
10.0,47.185,,,1704707.0,1721467020.3781738,1
10.0,40.065,,,1708810.0,1721467020.4390435,1
10.0,27.736666666666668,,,1712537.0,1721467020.499913,1
10.0,7.777500000000001,0.324079,34.59,1715431.5,1721467020.5607827,1
10.0,-15.57,,,1713200.0,1721467020.6216521,1
10.0,-39.625,,,1713341.5,1721467020.6825218,1
10.0,-61.650000000000006,,,1711825.0,1721467020.7433913,1
10.0,-81.0475,0.324079,34.59,1707446.0,1721467020.804261,1
10.0,-115.72500000000001,,,1704879.0,1721467020.8651304,1
10.0,-100.6175,,,1703768.5,1721467020.926,1
10.0,-5.540000000000003,,,1703833.0,1721467020.9868696,1
10.0,61.14249999999999,0.324079,34.59,1705461.5,1721467021.0477393,1
10.0,75.71,,,1708236.0,1721467021.1086087,1
10.0,63.292500000000004,,,1711850.0,1721467021.1694782,1
10.0,49.3325,,,1716137.0,1721467021.2303479,1
10.0,42.5575,0.324079,34.59,1720184.0,1721467021.2912173,1
10.0,37.2675,,,1724600.0,1721467021.352087,1
10.0,20.3125,,,1728691.5,1721467021.4129565,1
10.0,0.6724999999999997,,,1734610.0,1721467021.4738262,1
10.0,-21.7425,0.32536,34.59,1733767.0,1721467021.5346956,1
10.0,-39.612500000000004,,,1728310.5,1721467021.5955653,1
10.0,-62.315,,,1725746.0,1721467021.6564348,1
10.0,-62.73666666666667,,,1726068.0,1721467021.7173045,1
10.0,6.894999999999998,0.32536,34.59,1728396.5,1721467021.778174,1
10.0,83.36,,,1730447.0,1721467021.8390436,1
10.0,71.1725,,,1731980.5,1721467021.899913,1
10.0,25.1525,,,1734432.0,1721467021.9607825,1
10.0,12.4125,0.326641,34.59,1737411.0,1721467022.0216522,1
10.0,3.7475000000000005,,,1740662.0,1721467022.0825217,1
10.0,-12.075,,,1744192.0,1721467022.1433914,1
10.0,-20.822499999999998,,,1747409.0,1721467022.2042608,1
10.0,-34.74666666666667,0.324079,34.59,1750931.0,1721467022.2651305,1
10.0,-50.015,,,1750269.0,1721467022.326,1
10.0,-64.11500000000001,,,1744625.5,1721467022.3868697,1
10.0,-95.6825,,,1741464.0,1721467022.4477391,1
10.0,-82.1825,0.322798,34.59,1741466.5,1721467022.5086088,1
10.0,1.1825,,,1742774.0,1721467022.5694783,1
10.0,57.887499999999996,,,1743653.0,1721467022.630348,1
10.0,62.370000000000005,,,1745023.0,1721467022.6912174,1
10.0,41.64,0.327922,34.59,1746793.0,1721467022.7520869,1
10.0,32.7625,,,1749507.5,1721467022.8129566,1
10.0,24.28,,,1752213.0,1721467022.873826,1
10.0,16.4875,,,1755003.5,1721467022.9346957,1
10.0,-2.0174999999999996,,,1757864.0,1721467022.9955652,1
10.0,-31.3525,0.327922,34.59,1759228.0,1721467023.0564349,1
10.0,-53.05,,,1754941.0,1721467023.1173043,1
10.0,-85.9225,,,1750772.0,1721467023.178174,1
10.0,-96.52250000000001,,,1746909.5,1721467023.2390435,1
10.0,-21.9075,0.324079,34.57,1745507.0,1721467023.2999132,1
10.0,51.84,,,1746106.0,1721467023.3607826,1
10.0,76.58333333333333,,,1745992.0,1721467023.421652,1
10.0,70.6075,,,1746304.0,1721467023.4825218,1
10.0,58.3775,0.324079,34.57,1746343.0,1721467023.5433912,1
10.0,37.3625,,,1747324.5,1721467023.604261,1
10.0,24.3825,,,1749393.0,1721467023.6651304,1
10.0,5.8374999999999995,,,1752057.5,1721467023.726,1
10.0,-24.669999999999998,0.324079,34.57,1754901.0,1721467023.7868695,1
10.0,-49.8775,,,1755252.5,1721467023.8477392,1
10.0,-88.37249999999999,,,1747909.0,1721467023.9086087,1
10.0,-97.5125,,,1740874.5,1721467023.9694784,1
10.0,-36.059999999999995,0.326641,34.57,1736565.0,1721467024.0303478,1
10.0,34.57,,,1735634.5,1721467024.0912175,1
10.0,69.6225,,,1735213.0,1721467024.152087,1
10.0,59.76,,,1736026.5,1721467024.2129564,1
10.0,47.4325,0.326641,34.57,1737732.0,1721467024.2738261,1
10.0,42.027499999999996,,,1743695.0,1721467024.3346956,1
10.0,33.96,,,1751400.0,1721467024.3955653,1
10.0,12.955000000000002,,,1758618.5,1721467024.4564347,1
10.0,-12.49,0.322798,34.57,1767003.0,1721467024.5173044,1
10.0,-43.3625,,,1765010.0,1721467024.5781739,1
10.0,-64.15333333333332,,,1750729.0,1721467024.6390436,1
10.0,-87.125,,,1729354.0,1721467024.699913,1
10.0,-119.37,0.322798,34.57,1715112.0,1721467024.7607827,1
10.0,-76.165,,,1709463.5,1721467024.8216522,1
10.0,18.497500000000002,,,1705708.0,1721467024.8825219,1
10.0,74.0125,,,1700584.5,1721467024.9433913,1
10.0,79.3725,0.327922,34.57,1695343.5,1721467025.0042608,1
10.0,64.69,,,1692187.0,1721467025.0651305,1
10.0,55.417500000000004,,,1690445.5,1721467025.126,1
10.0,49.330000000000005,,,1690652.0,1721467025.1868696,1
10.0,37.87,,,1692560.0,1721467025.247739,1
10.0,16.435000000000002,0.327922,34.57,1695583.0,1721467025.3086088,1
10.0,-10.16,,,1698919.0,1721467025.3694782,1
10.0,-38.5125,,,1693997.0,1721467025.430348,1
10.0,-59.4175,,,1685032.0,1721467025.4912174,1
10.0,-99.055,0.327922,34.57,1679612.0,1721467025.552087,1
10.0,-91.1225,,,1677236.0,1721467025.6129565,1
10.0,-2.165000000000001,,,1676388.0,1721467025.6738262,1
10.0,65.8825,,,1675417.5,1721467025.7346957,1
10.0,84.67,0.324079,34.57,1674694.0,1721467025.7955651,1
10.0,75.2825,,,1675071.0,1721467025.8564348,1
10.0,66.49000000000001,,,1676495.0,1721467025.9173043,1
10.0,59.292500000000004,,,1678812.0,1721467025.978174,1
10.0,51.5125,0.32536,34.57,1681948.0,1721467026.0390434,1
10.0,30.397499999999997,,,1687290.5,1721467026.0999131,1
10.0,5.7725,,,1692411.0,1721467026.1607826,1
10.0,-16.807499999999997,,,1697162.5,1721467026.2216523,1
10.0,-44.3425,0.32536,34.57,1699597.0,1721467026.2825217,1
10.0,-60.82333333333332,,,1700523.0,1721467026.3433914,1
10.0,-81.5375,,,1703909.5,1721467026.4042609,1
10.0,-119.2175,,,1705332.0,1721467026.4651306,1
10.0,-88.61,0.326641,34.57,1701571.0,1721467026.526,1
10.0,5.140000000000001,,,1695919.0,1721467026.5868695,1
10.0,58.3475,,,1692460.5,1721467026.6477392,1
10.0,64.69749999999999,,,1691301.0,1721467026.7086086,1
10.0,59.167500000000004,0.326641,34.57,1689776.0,1721467026.7694783,1
10.0,54.349999999999994,,,1689058.0,1721467026.8303478,1
10.0,41.89,,,1689001.5,1721467026.8912175,1
10.0,29.666666666666668,,,1689427.0,1721467026.952087,1
10.0,11.3675,0.324079,34.57,1690177.0,1721467027.0129566,1
10.0,-10.145,,,1692122.0,1721467027.073826,1
10.0,-40.317499999999995,,,1687544.5,1721467027.1346958,1
10.0,-60.795,,,1676874.0,1721467027.1955652,1
10.0,-80.9625,0.322798,34.57,1672265.0,1721467027.256435,1
10.0,-112.60249999999999,,,1671065.5,1721467027.3173044,1
10.0,-73.42750000000001,,,1670843.0,1721467027.3781738,1
10.0,27.305,,,1670982.0,1721467027.4390435,1
10.0,86.70333333333333,,,1671613.0,1721467027.499913,1
10.0,102.2975,0.324079,34.57,1672902.0,1721467027.5607827,1
10.0,84.66749999999999,,,1674838.0,1721467027.6216521,1
10.0,66.63499999999999,,,1677520.0,1721467027.6825218,1
10.0,59.01,,,1681437.0,1721467027.7433913,1
10.0,51.27,0.324079,34.57,1684745.0,1721467027.804261,1
10.0,32.375,,,1687898.5,1721467027.8651304,1
10.0,8.42,,,1690144.0,1721467027.926,1
10.0,-15.307500000000001,,,1684006.5,1721467027.9868696,1
10.0,-41.9825,0.324079,34.57,1678514.0,1721467028.0477393,1
10.0,-61.99666666666667,,,1677842.0,1721467028.1086087,1
10.0,-79.4675,,,1678983.0,1721467028.1694782,1
10.0,-114.4475,,,1681937.0,1721467028.2303479,1
10.0,-106.92750000000001,0.321517,34.57,1689784.0,1721467028.2912173,1
10.0,-14.659999999999998,,,1689149.5,1721467028.352087,1
10.0,52.78,,,1687056.0,1721467028.4129565,1
10.0,64.53999999999999,,,1686857.5,1721467028.4738262,1
10.0,49.9675,0.321517,34.57,1688174.0,1721467028.5346956,1
10.0,43.6425,,,1690625.5,1721467028.5955653,1
10.0,41.7775,,,1694410.0,1721467028.6564348,1
10.0,39.763333333333335,,,1697074.0,1721467028.7173045,1
10.0,25.045,0.324079,34.57,1700475.5,1721467028.778174,1
10.0,8.965000000000002,,,1703186.0,1721467028.8390436,1
10.0,-16.43,,,1698965.5,1721467028.899913,1
10.0,-36.5325,,,1694080.0,1721467028.9607825,1
10.0,-59.49,0.32536,34.57,1692009.5,1721467029.0216522,1
10.0,-89.07000000000001,,,1691752.0,1721467029.0825217,1
10.0,-39.7075,,,1692282.0,1721467029.1433914,1
10.0,44.834999999999994,,,1692569.5,1721467029.2042608,1
10.0,82.05999999999999,0.324079,34.57,1693657.0,1721467029.2651305,1
10.0,78.4225,,,1695704.0,1721467029.326,1
10.0,58.8975,,,1698286.0,1721467029.3868697,1
10.0,48.7375,,,1701228.0,1721467029.4477391,1
10.0,40.5525,0.321517,34.57,1704185.0,1721467029.5086088,1
10.0,31.285,,,1707545.5,1721467029.5694783,1
10.0,8.1575,,,1711156.0,1721467029.630348,1
10.0,-16.66,,,1711299.0,1721467029.6912174,1
10.0,-39.910000000000004,0.320236,34.57,1706345.0,1721467029.7520869,1
10.0,-56.9825,,,1704971.0,1721467029.8129566,1
10.0,-70.72,,,1706004.0,1721467029.873826,1
10.0,-99.4775,,,1710464.5,1721467029.9346957,1
10.0,-101.19,,,1714849.0,1721467029.9955652,1
10.0,-16.720000000000002,0.322798,34.57,1720456.5,1721467030.0564349,1
10.0,54.300000000000004,,,1727623.0,1721467030.1173043,1
10.0,68.86500000000001,,,1727842.0,1721467030.178174,1
10.0,53.325,,,1727521.0,1721467030.2390435,1
10.0,38.7525,0.32536,34.57,1729250.0,1721467030.2999132,1
10.0,30.655,,,1731771.0,1721467030.3607826,1
10.0,25.12,,,1735079.5,1721467030.421652,1
10.0,11.1725,,,1738276.0,1721467030.4825218,1
10.0,-9.2475,0.324079,34.57,1741318.5,1721467030.5433912,1
10.0,-37.5775,,,1737005.5,1721467030.604261,1
10.0,-59.8625,,,1734068.0,1721467030.6651304,1
10.0,-90.7975,,,1733561.0,1721467030.726,1
10.0,-98.905,0.322798,34.57,1735765.0,1721467030.7868695,1
10.0,-20.065,,,1737982.5,1721467030.8477392,1
10.0,52.17,,,1740439.0,1721467030.9086087,1
10.0,73.2125,,,1743045.5,1721467030.9694784,1
10.0,63.946666666666665,0.320236,34.57,1746177.0,1721467031.0303478,1
10.0,55.905,,,1749971.0,1721467031.0912175,1
10.0,39.5975,,,1753898.0,1721467031.152087,1
10.0,21.4775,,,1757692.0,1721467031.2129564,1
10.0,-1.4099999999999997,0.324079,34.55,1761711.0,1721467031.2738261,1
10.0,-28.220000000000002,,,1764618.0,1721467031.3346956,1
10.0,-50.105000000000004,,,1762136.0,1721467031.3955653,1
10.0,-91.76499999999999,,,1756810.5,1721467031.4564347,1
10.0,-91.8225,0.321517,34.55,1754993.0,1721467031.5173044,1
10.0,-9.355,,,1755064.0,1721467031.5781739,1
10.0,53.00666666666666,,,1755343.0,1721467031.6390436,1
10.0,68.36250000000001,,,1757339.5,1721467031.699913,1
10.0,49.834999999999994,0.320236,34.55,1758523.0,1721467031.7607827,1
10.0,36.455,,,1760167.5,1721467031.8216522,1
10.0,29.634999999999998,,,1762196.0,1721467031.8825219,1
10.0,19.895000000000003,,,1765735.5,1721467031.9433913,1
10.0,-1.35,0.318955,34.55,1772267.0,1721467032.0042608,1
10.0,-30.625000000000004,,,1779661.0,1721467032.0651305,1
10.0,-58.317499999999995,,,1790099.0,1721467032.126,1
10.0,-90.09666666666665,,,1787044.5,1721467032.1868696,1
10.0,-119.3375,,,1778581.0,1721467032.247739,1
10.0,-73.6525,0.321517,34.55,1771682.5,1721467032.3086088,1
10.0,18.2825,,,1767398.5,1721467032.3694782,1
10.0,64.17500000000001,,,1763737.0,1721467032.430348,1
10.0,62.337500000000006,,,1759298.5,1721467032.4912174,1
10.0,47.06,0.324079,34.55,1756059.0,1721467032.552087,1
10.0,34.505,,,1754945.0,1721467032.6129565,1
10.0,28.055,,,1756579.0,1721467032.6738262,1
10.0,13.19,,,1759597.5,1721467032.7346957,1
10.0,-14.209999999999999,0.322798,34.55,1764261.0,1721467032.7955651,1
10.0,-33.260000000000005,,,1767621.5,1721467032.8564348,1
10.0,-65.6775,,,1763793.0,1721467032.9173043,1
10.0,-81.4725,,,1756253.0,1721467032.978174,1
10.0,-9.510000000000002,0.318955,34.55,1751293.0,1721467033.0390434,1
10.0,82.0,,,1749347.0,1721467033.0999131,1
10.0,126.32499999999999,,,1749096.0,1721467033.1607826,1
10.0,94.9325,,,1748957.5,1721467033.2216523,1
10.0,36.464999999999996,0.318955,34.57,1748686.0,1721467033.2825217,1
10.0,12.576666666666668,,,1749144.0,1721467033.3433914,1
10.0,13.3625,,,1751142.0,1721467033.4042609,1
10.0,0.2774999999999994,,,1753018.0,1721467033.4651306,1
10.0,-33.4425,0.320236,34.57,1755830.0,1721467033.526,1
10.0,-63.7525,,,1755426.0,1721467033.5868695,1
10.0,-81.295,,,1747644.0,1721467033.6477392,1
10.0,-110.97,,,1739375.0,1721467033.7086086,1
10.0,-84.5075,0.321517,34.57,1734028.5,1721467033.7694783,1
10.0,5.082499999999999,,,1731611.0,1721467033.8303478,1
10.0,63.94500000000001,,,1730216.0,1721467033.8912175,1
10.0,71.22000000000001,,,1728184.0,1721467033.952087,1
10.0,53.3875,0.320236,34.57,1727364.5,1721467034.0129566,1
10.0,43.84,,,1727667.0,1721467034.073826,1
10.0,37.3225,,,1728621.0,1721467034.1346958,1
10.0,26.345,,,1730399.0,1721467034.1955652,1
10.0,8.3725,0.317674,34.53,1731866.0,1721467034.256435,1
10.0,-24.62,,,1732425.0,1721467034.3173044,1
10.0,-53.6325,,,1725648.0,1721467034.3781738,1
10.0,-86.4325,,,1715674.0,1721467034.4390435,1
10.0,-116.64999999999999,,,1709615.0,1721467034.499913,1
10.0,-78.23249999999999,0.318955,34.53,1707370.0,1721467034.5607827,1
10.0,17.525,,,1706638.0,1721467034.6216521,1
10.0,76.475,,,1705750.5,1721467034.6825218,1
10.0,86.04750000000001,,,1705355.0,1721467034.7433913,1
10.0,77.9825,0.318955,34.53,1706446.0,1721467034.804261,1
10.0,74.71249999999999,,,1708047.0,1721467034.8651304,1
10.0,75.5475,,,1710542.0,1721467034.926,1
10.0,62.355,,,1713372.0,1721467034.9868696,1
10.0,25.9225,0.321517,34.53,1716276.0,1721467035.0477393,1
10.0,-4.45,,,1717807.0,1721467035.1086087,1
10.0,-40.19,,,1709988.5,1721467035.1694782,1
10.0,-106.7675,,,1700851.0,1721467035.2303479,1
10.0,-155.865,0.320236,34.53,1695423.0,1721467035.2912173,1
10.0,-110.1375,,,1692947.0,1721467035.352087,1
10.0,-13.82,,,1692950.0,1721467035.4129565,1
10.0,41.8775,,,1692402.0,1721467035.4738262,1
10.0,49.06999999999999,0.317674,34.53,1692598.5,1721467035.5346956,1
10.0,41.1875,,,1695344.0,1721467035.5955653,1
10.0,40.3625,,,1700528.0,1721467035.6564348,1
10.0,43.78,,,1702488.0,1721467035.7173045,1
10.0,36.1725,0.317674,34.53,1706681.0,1721467035.778174,1
10.0,13.86,,,1707719.5,1721467035.8390436,1
10.0,-11.9225,,,1707624.0,1721467035.899913,1
10.0,-41.614999999999995,,,1697757.5,1721467035.9607825,1
10.0,-63.4025,0.320236,34.53,1688250.0,1721467036.0216522,1
10.0,-99.2875,,,1683839.0,1721467036.0825217,1
10.0,-107.36749999999999,,,1681908.0,1721467036.1433914,1
10.0,-23.622500000000002,,,1680790.5,1721467036.2042608,1
10.0,49.97,0.320236,34.53,1679492.0,1721467036.2651305,1
10.0,83.1575,,,1678884.0,1721467036.326,1
10.0,78.2475,,,1679152.0,1721467036.3868697,1
10.0,67.405,,,1680778.0,1721467036.4477391,1
10.0,62.785,0.320236,34.53,1682755.0,1721467036.5086088,1
10.0,58.485,,,1685621.5,1721467036.5694783,1
10.0,46.11749999999999,,,1688477.0,1721467036.630348,1
10.0,30.5575,,,1691871.5,1721467036.6912174,1
10.0,16.392500000000002,0.317674,34.53,1691823.0,1721467036.7520869,1
10.0,12.6975,,,1683316.0,1721467036.8129566,1
10.0,-19.87333333333333,,,1676437.0,1721467036.873826,1
10.0,-80.2,,,1673150.5,1721467036.9346957,1
10.0,-68.675,,,1672605.0,1721467036.9955652,1
10.0,3.9850000000000003,0.318955,34.53,1672951.0,1721467037.0564349,1
10.0,29.2125,,,1673599.0,1721467037.1173043,1
10.0,14.104999999999999,,,1674784.0,1721467037.178174,1
10.0,5.9925,,,1676936.0,1721467037.2390435,1
10.0,2.4699999999999998,0.320236,34.55,1679651.0,1721467037.2999132,1
10.0,4.699999999999999,,,1682827.0,1721467037.3607826,1
10.0,7.956666666666667,,,1686176.0,1721467037.421652,1
10.0,-5.01,,,1689542.0,1721467037.4825218,1
10.0,-20.972499999999997,0.321517,34.55,1690995.0,1721467037.5433912,1
10.0,-40.945,,,1684056.0,1721467037.604261,1
10.0,-59.2375,,,1677292.0,1721467037.6651304,1
10.0,-75.7175,,,1673904.5,1721467037.726,1
10.0,-107.105,0.322798,34.55,1672977.0,1721467037.7868695,1
10.0,-84.58,,,1673768.5,1721467037.8477392,1
10.0,9.795,,,1674126.0,1721467037.9086087,1
10.0,68.35,,,1675130.5,1721467037.9694784,1
10.0,74.81333333333333,0.318955,34.55,1676866.0,1721467038.0303478,1
10.0,56.4875,,,1679423.5,1721467038.0912175,1
10.0,43.8825,,,1682678.0,1721467038.152087,1
10.0,38.182500000000005,,,1686057.0,1721467038.2129564,1
10.0,30.3725,0.317674,34.55,1689311.0,1721467038.2738261,1
10.0,11.465,,,1693066.5,1721467038.3346956,1
10.0,-14.23,,,1696552.0,1721467038.3955653,1
10.0,-36.964999999999996,,,1694475.0,1721467038.4564347,1
10.0,-67.02000000000001,0.320236,34.55,1686366.0,1721467038.5173044,1
10.0,-73.8325,,,1683381.0,1721467038.5781739,1
10.0,-3.4500000000000006,,,1683689.5,1721467038.6390436,1
10.0,77.0825,,,1685149.0,1721467038.699913,1
10.0,94.42750000000001,0.322798,34.55,1686219.5,1721467038.7607827,1
10.0,71.6125,,,1687654.0,1721467038.8216522,1
10.0,52.334999999999994,,,1689514.5,1721467038.8825219,1
10.0,23.759999999999998,,,1692374.0,1721467038.9433913,1
10.0,11.3775,0.322798,34.55,1695732.5,1721467039.0042608,1
10.0,2.0349999999999997,,,1699245.0,1721467039.0651305,1
10.0,-16.3725,,,1703129.0,1721467039.126,1
10.0,-33.31,,,1704442.0,1721467039.1868696,1
10.0,-54.7175,,,1698141.0,1721467039.247739,1
10.0,-74.235,0.318955,34.53,1692917.0,1721467039.3086088,1
10.0,-101.65249999999999,,,1691069.5,1721467039.3694782,1
10.0,-111.305,,,1692152.5,1721467039.430348,1
10.0,-29.46,,,1693423.0,1721467039.4912174,1
10.0,51.480000000000004,0.318955,34.53,1694666.0,1721467039.552087,1
10.0,78.6375,,,1696084.0,1721467039.6129565,1
10.0,65.63250000000001,,,1698791.0,1721467039.6738262,1
10.0,48.480000000000004,,,1702119.0,1721467039.7346957,1
10.0,36.18,0.321517,34.53,1705657.5,1721467039.7955651,1
10.0,27.995,,,1709508.0,1721467039.8564348,1
10.0,14.395,,,1712995.0,1721467039.9173043,1
10.0,-15.8,,,1716749.0,1721467039.978174,1
10.0,-42.45,0.321517,34.53,1715326.0,1721467040.0390434,1
10.0,-67.75,,,1708202.0,1721467040.0999131,1
10.0,-94.135,,,1703530.5,1721467040.1607826,1
10.0,-48.24999999999999,,,1701564.0,1721467040.2216523,1
10.0,44.0925,0.321517,34.53,1702411.0,1721467040.2825217,1
10.0,92.92666666666666,,,1703477.0,1721467040.3433914,1
10.0,99.8475,,,1704501.0,1721467040.4042609,1
10.0,81.6,,,1706159.0,1721467040.4651306,1
10.0,54.7625,0.321517,34.53,1708177.0,1721467040.526,1
10.0,18.925,,,1711019.0,1721467040.5868695,1
10.0,-13.620000000000001,,,1714115.0,1721467040.6477392,1
10.0,-52.537499999999994,,,1717339.0,1721467040.7086086,1
10.0,-85.47500000000001,0.318955,34.53,1719629.5,1721467040.7694783,1
10.0,-123.815,,,1714763.0,1721467040.8303478,1
10.0,-108.62,,,1708223.0,1721467040.8912175,1
10.0,-22.876666666666665,,,1704562.0,1721467040.952087,1
10.0,49.239999999999995,0.322798,34.53,1705019.0,1721467041.0129566,1
10.0,74.535,,,1705847.0,1721467041.073826,1
10.0,54.330000000000005,,,1706289.0,1721467041.1346958,1
10.0,38.2525,,,1707343.5,1721467041.1955652,1
10.0,23.1575,0.322798,34.53,1708772.0,1721467041.256435,1
10.0,11.77,,,1711049.0,1721467041.3173044,1
10.0,-12.425,,,1714037.0,1721467041.3781738,1
10.0,-43.209999999999994,,,1716751.0,1721467041.4390435,1
10.0,-74.67666666666666,,,1714381.0,1721467041.499913,1
10.0,-115.57499999999999,0.320236,34.53,1706833.0,1721467041.5607827,1
10.0,-97.725,,,1702446.0,1721467041.6216521,1
10.0,1.7624999999999993,,,1701869.0,1721467041.6825218,1
10.0,70.46,,,1703027.0,1721467041.7433913,1
10.0,82.15,0.320236,34.53,1704429.0,1721467041.804261,1
10.0,63.7375,,,1705475.0,1721467041.8651304,1
10.0,42.464999999999996,,,1707458.5,1721467041.926,1
10.0,28.825000000000003,,,1709936.0,1721467041.9868696,1
10.0,16.215,0.336889,34.53,1713342.5,1721467042.0477393,1
10.0,-11.79,,,1716450.0,1721467042.1086087,1
10.0,-34.3975,,,1719841.0,1721467042.1694782,1
10.0,-67.6725,,,1716046.0,1721467042.2303479,1
10.0,-100.02,0.322798,34.53,1708092.5,1721467042.2912173,1
10.0,-47.2425,,,1702594.5,1721467042.352087,1
10.0,42.045,,,1702139.0,1721467042.4129565,1
10.0,83.7725,,,1703205.0,1721467042.4738262,1
10.0,75.1925,0.324079,34.53,1704070.0,1721467042.5346956,1
10.0,53.975,,,1705229.5,1721467042.5955653,1
10.0,44.427499999999995,,,1707850.0,1721467042.6564348,1
10.0,36.38,,,1710412.0,1721467042.7173045,1
10.0,26.7125,0.321517,34.53,1713672.0,1721467042.778174,1
10.0,5.8975,,,1717586.0,1721467042.8390436,1
10.0,-28.424999999999997,,,1716113.0,1721467042.899913,1
10.0,-52.8925,,,1711251.0,1721467042.9607825,1
10.0,-86.705,0.321517,34.53,1705719.5,1721467043.0216522,1
10.0,-105.705,,,1700810.0,1721467043.0825217,1
10.0,-28.2825,,,1699600.5,1721467043.1433914,1
10.0,54.80500000000001,,,1699725.0,1721467043.2042608,1
10.0,77.73,0.32536,34.5,1700237.0,1721467043.2651305,1
10.0,63.165,,,1701422.0,1721467043.326,1
10.0,44.875,,,1704353.5,1721467043.3868697,1
10.0,32.0725,,,1707368.0,1721467043.4477391,1
10.0,21.205,0.326641,34.5,1710890.5,1721467043.5086088,1
10.0,1.1075000000000004,,,1714181.0,1721467043.5694783,1
10.0,-27.5425,,,1717158.5,1721467043.630348,1
10.0,-50.365,,,1715332.0,1721467043.6912174,1
10.0,-86.4025,0.326641,34.5,1707353.5,1721467043.7520869,1
10.0,-76.26499999999999,,,1702321.5,1721467043.8129566,1
10.0,8.803333333333333,,,1702333.0,1721467043.873826,1
10.0,83.9675,,,1703761.5,1721467043.9346957,1
10.0,119.77999999999999,,,1704987.0,1721467043.9955652,1
10.0,111.7725,0.322798,34.5,1706457.5,1721467044.0564349,1
10.0,96.2225,,,1707132.0,1721467044.1173043,1
10.0,70.465,,,1709643.0,1721467044.178174,1
10.0,32.735,,,1712813.0,1721467044.2390435,1
10.0,-22.685,0.32536,34.5,1716276.0,1721467044.2999132,1
10.0,-91.0025,,,1721008.5,1721467044.3607826,1
10.0,-120.07333333333332,,,1718809.0,1721467044.421652,1
10.0,-146.305,,,1711387.0,1721467044.4825218,1
10.0,-161.15500000000003,0.32536,34.5,1707687.0,1721467044.5433912,1
10.0,-69.0175,,,1706530.5,1721467044.604261,1
10.0,54.51,,,1707643.0,1721467044.6651304,1
10.0,106.57,,,1708621.0,1721467044.726,1
10.0,106.2575,0.326641,34.5,1710570.5,1721467044.7868695,1
10.0,87.8475,,,1712267.0,1721467044.8477392,1
10.0,85.9375,,,1715042.0,1721467044.9086087,1
10.0,61.135,,,1718203.0,1721467044.9694784,1
10.0,12.576666666666666,0.326641,34.5,1721672.0,1721467045.0303478,1
10.0,-29.009999999999998,,,1725544.0,1721467045.0912175,1
10.0,-71.6025,,,1723628.5,1721467045.152087,1
10.0,-110.3325,,,1716312.0,1721467045.2129564,1
10.0,-145.7325,0.324079,34.5,1711684.5,1721467045.2738261,1
10.0,-128.2825,,,1710330.5,1721467045.3346956,1
10.0,-19.345,,,1711307.0,1721467045.3955653,1
10.0,53.8275,,,1712512.0,1721467045.4564347,1
10.0,57.739999999999995,0.322798,34.5,1713672.0,1721467045.5173044,1
10.0,35.73,,,1715455.5,1721467045.5781739,1
10.0,30.05666666666667,,,1717521.0,1721467045.6390436,1
10.0,29.6425,,,1720382.0,1721467045.699913,1
10.0,25.2775,0.32536,34.5,1723721.0,1721467045.7607827,1
10.0,9.6025,,,1726861.0,1721467045.8216522,1
10.0,-19.0925,,,1726468.5,1721467045.8825219,1
10.0,-43.315,,,1719102.0,1721467045.9433913,1
10.0,-64.705,0.326641,34.5,1714392.5,1721467046.0042608,1
10.0,-98.5275,,,1712991.0,1721467046.0651305,1
10.0,-63.48499999999999,,,1713772.5,1721467046.126,1
10.0,25.223333333333333,,,1714782.0,1721467046.1868696,1
10.0,74.6675,,,1715529.5,1721467046.247739,1
10.0,81.4125,0.32536,34.53,1717435.0,1721467046.3086088,1
10.0,63.0475,,,1720045.0,1721467046.3694782,1
10.0,51.1525,,,1723209.0,1721467046.430348,1
10.0,45.2275,,,1726552.0,1721467046.4912174,1
10.0,36.1075,0.324079,34.53,1730455.5,1721467046.552087,1
10.0,16.72,,,1734099.0,1721467046.6129565,1
10.0,-0.8674999999999999,,,1730932.0,1721467046.6738262,1
10.0,-29.025,,,1724055.0,1721467046.7346957,1
10.0,-74.79333333333334,0.324079,34.53,1721431.5,1721467046.7955651,1
10.0,-97.97,,,1722037.5,1721467046.8564348,1
10.0,-50.76,,,1723932.0,1721467046.9173043,1
10.0,17.2075,,,1725205.5,1721467046.978174,1
10.0,32.9125,0.326641,34.53,1726717.0,1721467047.0390434,1
10.0,16.759999999999998,,,1728913.5,1721467047.0999131,1
10.0,2.57,,,1731724.0,1721467047.1607826,1
10.0,-0.5549999999999999,,,1734971.5,1721467047.2216523,1
10.0,-2.07,0.329203,34.5,1739229.5,1721467047.2825217,1
10.0,-15.026666666666666,,,1742795.0,1721467047.3433914,1
10.0,-32.1325,,,1738727.5,1721467047.4042609,1
10.0,-63.825,,,1731485.0,1721467047.4651306,1
10.0,-96.03,0.329203,34.5,1727879.0,1721467047.526,1
10.0,-42.39,,,1727435.0,1721467047.5868695,1
10.0,42.2975,,,1728688.5,1721467047.6477392,1
10.0,76.31,,,1730168.0,1721467047.7086086,1
10.0,65.74,0.326641,34.5,1731349.5,1721467047.7694783,1
10.0,43.5875,,,1733191.0,1721467047.8303478,1
10.0,25.5575,,,1734777.0,1721467047.8912175,1
10.0,20.466666666666665,,,1737896.5,1721467047.952087,1
10.0,3.84,0.326641,34.5,1741088.0,1721467048.0129566,1
10.0,-22.68,,,1742664.0,1721467048.073826,1
10.0,-49.4825,,,1736947.0,1721467048.1346958,1
10.0,-91.4375,,,1731119.0,1721467048.1955652,1
10.0,-56.285000000000004,0.327922,34.5,1728672.0,1721467048.256435,1
10.0,42.725,,,1729468.0,1721467048.3173044,1
10.0,90.13000000000001,,,1731639.5,1721467048.3781738,1
10.0,79.435,,,1732871.0,1721467048.4390435,1
10.0,62.126666666666665,,,1734613.0,1721467048.499913,1
10.0,47.67,0.330484,34.5,1736643.0,1721467048.5607827,1
10.0,32.855000000000004,,,1739732.5,1721467048.6216521,1
10.0,26.659999999999997,,,1743051.0,1721467048.6825218,1
10.0,-6.31,,,1744767.0,1721467048.7433913,1
10.0,-36.685,0.327922,34.5,1736807.5,1721467048.804261,1
10.0,-70.50999999999999,,,1731770.0,1721467048.8651304,1
10.0,-99.75750000000001,,,1730702.0,1721467048.926,1
10.0,-36.9025,,,1731866.0,1721467048.9868696,1
10.0,47.36,0.326641,34.5,1733277.5,1721467049.0477393,1
10.0,73.39333333333333,,,1734701.0,1721467049.1086087,1
10.0,57.9625,,,1738268.0,1721467049.1694782,1
10.0,36.47,,,1744115.0,1721467049.2303479,1
10.0,27.9825,0.329203,34.53,1750923.0,1721467049.2912173,1
10.0,18.7975,,,1758544.0,1721467049.352087,1
10.0,5.28,,,1766841.0,1721467049.4129565,1
10.0,-23.8425,,,1775745.0,1721467049.4738262,1
10.0,-53.75750000000001,0.330484,34.53,1772459.0,1721467049.5346956,1
10.0,-81.55749999999999,,,1762872.5,1721467049.5955653,1
10.0,-119.08250000000001,,,1758202.0,1721467049.6564348,1
10.0,-92.97666666666667,,,1757577.0,1721467049.7173045,1
10.0,-0.2599999999999998,0.330484,34.53,1757478.0,1721467049.778174,1
10.0,66.69749999999999,,,1757222.0,1721467049.8390436,1
10.0,68.1925,,,1758393.0,1721467049.899913,1
10.0,47.33,,,1759919.5,1721467049.9607825,1
10.0,32.035000000000004,0.327922,34.53,1762192.0,1721467050.0216522,1
10.0,21.125,,,1764049.0,1721467050.0825217,1
10.0,8.62,,,1766602.0,1721467050.1433914,1
10.0,-20.377499999999998,,,1766877.5,1721467050.2042608,1
10.0,-37.693333333333335,0.326641,34.5,1759298.0,1721467050.2651305,1
10.0,-67.53750000000001,,,1752482.0,1721467050.326,1
10.0,-100.2925,,,1749030.0,1721467050.3868697,1
10.0,-46.2125,,,1748379.0,1721467050.4477391,1
10.0,42.864999999999995,0.329203,34.5,1748931.0,1721467050.5086088,1
10.0,78.89,,,1749340.0,1721467050.5694783,1
10.0,66.22,,,1749545.0,1721467050.630348,1
10.0,46.574999999999996,,,1750835.5,1721467050.6912174,1
10.0,29.3675,0.329203,34.5,1752388.0,1721467050.7520869,1
10.0,18.4825,,,1754549.5,1721467050.8129566,1
10.0,-4.346666666666667,,,1756983.0,1721467050.873826,1
10.0,-30.567500000000003,,,1755316.0,1721467050.9346957,1
10.0,-55.419999999999995,,,1745071.0,1721467050.9955652,1
10.0,-92.07,0.330484,34.5,1741455.0,1721467051.0564349,1
10.0,-60.684999999999995,,,1744302.5,1721467051.1173043,1
10.0,29.2725,,,1746749.0,1721467051.178174,1
10.0,72.63250000000001,,,1754022.0,1721467051.2390435,1
10.0,63.584999999999994,0.327922,34.53,1761398.0,1721467051.2999132,1
10.0,38.38,,,1769906.0,1721467051.3607826,1
10.0,22.05,,,1773018.0,1721467051.421652,1
10.0,11.2275,,,1772052.5,1721467051.4825218,1
10.0,-3.8875,0.330484,34.53,1769729.0,1721467051.5433912,1
10.0,-33.879999999999995,,,1767576.0,1721467051.604261,1
10.0,-61.1625,,,1757694.0,1721467051.6651304,1
10.0,-103.385,,,1748904.0,1721467051.726,1
10.0,-91.595,0.333046,34.53,1744242.0,1721467051.7868695,1
10.0,7.192500000000001,,,1742077.5,1721467051.8477392,1
10.0,74.22500000000001,,,1741023.0,1721467051.9086087,1
10.0,82.9,,,1740188.5,1721467051.9694784,1
10.0,65.86666666666666,0.335608,34.53,1740405.0,1721467052.0303478,1
10.0,46.765,,,1742056.0,1721467052.0912175,1
10.0,33.1775,,,1744752.0,1721467052.152087,1
10.0,21.8425,,,1747406.5,1721467052.2129564,1
10.0,-0.13750000000000018,0.334327,34.49,1749904.0,1721467052.2738261,1
10.0,-18.105,,,1742329.0,1721467052.3346956,1
10.0,-49.25,,,1731694.0,1721467052.3955653,1
10.0,-59.875,,,1728303.0,1721467052.4564347,1
10.0,-1.8650000000000002,0.330484,34.49,1727981.5,1721467052.5173044,1
10.0,55.8575,,,1728286.0,1721467052.5781739,1
10.0,81.60666666666667,,,1728433.5,1721467052.6390436,1
10.0,74.04499999999999,,,1728858.0,1721467052.699913,1
10.0,58.36,0.330484,34.49,1730233.5,1721467052.7607827,1
10.0,26.3675,,,1731963.0,1721467052.8216522,1
10.0,-8.317499999999999,,,1734301.5,1721467052.8825219,1
10.0,-25.895000000000003,,,1736643.0,1721467052.9433913,1
10.0,-45.637499999999996,0.333046,34.49,1730187.0,1721467053.0042608,1
10.0,-68.49249999999999,,,1720218.0,1721467053.0651305,1
10.0,-96.525,,,1714830.0,1721467053.126,1
10.0,-123.94,,,1712845.0,1721467053.1868696,1
10.0,-83.58,,,1712321.5,1721467053.247739,1
10.0,21.285,0.335608,34.5,1711788.0,1721467053.3086088,1
10.0,78.905,,,1710806.0,1721467053.3694782,1
10.0,70.82,,,1710533.0,1721467053.430348,1
10.0,43.7125,,,1711644.0,1721467053.4912174,1
10.0,34.8325,0.333046,34.5,1713401.0,1721467053.552087,1
10.0,23.312500000000004,,,1716018.5,1721467053.6129565,1
10.0,12.14,,,1718970.0,1721467053.6738262,1
10.0,-17.43,,,1718309.5,1721467053.7346957,1
10.0,-43.086666666666666,0.331765,34.5,1707816.0,1721467053.7955651,1
10.0,-67.55499999999999,,,1702755.0,1721467053.8564348,1
10.0,-106.36,,,1701531.0,1721467053.9173043,1
10.0,-89.2275,,,1702156.0,1721467053.978174,1
10.0,10.622500000000002,0.331765,34.5,1702583.0,1721467054.0390434,1
10.0,79.965,,,1703019.0,1721467054.0999131,1
10.0,89.63499999999999,,,1704364.5,1721467054.1607826,1
10.0,69.85499999999999,,,1707145.0,1721467054.2216523,1
10.0,51.6525,0.334327,34.5,1711233.5,1721467054.2825217,1
10.0,41.27333333333333,,,1715431.0,1721467054.3433914,1
10.0,28.51,,,1719296.0,1721467054.4042609,1
10.0,6.14,,,1719830.0,1721467054.4651306,1
10.0,-22.9075,0.333046,34.5,1711480.0,1721467054.526,1
10.0,-49.482499999999995,,,1704955.0,1721467054.5868695,1
10.0,-77.9175,,,1703083.5,1721467054.6477392,1
10.0,-112.56750000000001,,,1705160.0,1721467054.7086086,1
10.0,-68.47749999999999,0.334327,34.5,1708116.5,1721467054.7694783,1
10.0,34.7275,,,1711761.0,1721467054.8303478,1
10.0,87.9475,,,1713681.0,1721467054.8912175,1
10.0,84.75333333333334,,,1721250.0,1721467054.952087,1
10.0,63.9075,0.331765,34.5,1730256.0,1721467055.0129566,1
10.0,49.3575,,,1737363.0,1721467055.073826,1
10.0,44.582499999999996,,,1745429.5,1721467055.1346958,1
10.0,36.67,,,1745825.0,1721467055.1955652,1
10.0,15.982499999999998,0.330484,34.49,1743372.0,1721467055.256435,1
10.0,-6.2925,,,1733742.0,1721467055.3173044,1
10.0,-36.0025,,,1726884.0,1721467055.3781738,1
10.0,-58.06,,,1724464.0,1721467055.4390435,1
10.0,-79.52333333333333,,,1723117.0,1721467055.499913,1
10.0,-108.61999999999999,0.333046,34.49,1722664.0,1721467055.5607827,1
10.0,-67.96,,,1722376.0,1721467055.6216521,1
10.0,30.3125,,,1721666.0,1721467055.6825218,1
10.0,74.18249999999999,,,1721265.0,1721467055.7433913,1
10.0,63.417500000000004,0.335608,34.49,1721237.0,1721467055.804261,1
10.0,41.464999999999996,,,1722288.0,1721467055.8651304,1
10.0,30.919999999999998,,,1723454.0,1721467055.926,1
10.0,28.365,,,1724680.0,1721467055.9868696,1
10.0,18.3675,0.335608,34.49,1726105.0,1721467056.0477393,1
10.0,1.6566666666666663,,,1727912.0,1721467056.1086087,1
10.0,-22.497500000000002,,,1724062.5,1721467056.1694782,1
10.0,-50.125,,,1716797.0,1721467056.2303479,1
10.0,-69.95250000000001,0.331765,34.5,1712977.5,1721467056.2912173,1
10.0,-100.615,,,1712354.0,1721467056.352087,1
10.0,-73.865,,,1712213.5,1721467056.4129565,1
10.0,25.332500000000003,,,1712391.0,1721467056.4738262,1
10.0,82.4275,0.331765,34.5,1712316.0,1721467056.5346956,1
10.0,79.51750000000001,,,1712564.0,1721467056.5955653,1
10.0,54.8275,,,1713458.5,1721467056.6564348,1
10.0,39.71666666666667,,,1714880.0,1721467056.7173045,1
10.0,34.63,0.336889,34.5,1716668.5,1721467056.778174,1
10.0,28.849999999999998,,,1718914.0,1721467056.8390436,1
10.0,7.1625,,,1721536.0,1721467056.899913,1
10.0,-12.3875,,,1725594.0,1721467056.9607825,1
10.0,-43.1225,0.336889,34.5,1726028.5,1721467057.0216522,1
10.0,-68.0875,,,1724286.0,1721467057.0825217,1
10.0,-100.7425,,,1724804.0,1721467057.1433914,1
10.0,-118.115,,,1728651.0,1721467057.2042608,1
10.0,-47.526666666666664,0.33817,34.49,1736687.5,1721467057.2651305,1
10.0,40.535,,,1741420.0,1721467057.326,1
10.0,82.9525,,,1740009.5,1721467057.3868697,1
10.0,74.6525,,,1741176.0,1721467057.4477391,1
10.0,51.472500000000004,0.335608,34.49,1744976.0,1721467057.5086088,1
10.0,37.9825,,,1749264.0,1721467057.5694783,1
10.0,31.602500000000006,,,1752418.0,1721467057.630348,1
10.0,19.975,,,1755619.0,1721467057.6912174,1
10.0,0.42500000000000027,0.336889,34.49,1759142.0,1721467057.7520869,1
10.0,-27.852500000000003,,,1761035.0,1721467057.8129566,1
10.0,-48.526666666666664,,,1756992.0,1721467057.873826,1
10.0,-73.05,,,1753234.0,1721467057.9346957,1
10.0,-100.075,,,1752275.0,1721467057.9955652,1
10.0,-36.9225,0.335608,34.49,1753042.0,1721467058.0564349,1
10.0,51.0975,,,1754463.0,1721467058.1173043,1
10.0,74.9875,,,1756131.5,1721467058.178174,1
10.0,53.972500000000004,,,1757303.0,1721467058.2390435,1
10.0,34.5475,0.336889,34.49,1759170.0,1721467058.2999132,1
10.0,30.255000000000003,,,1761518.0,1721467058.3607826,1
10.0,26.50666666666667,,,1764409.0,1721467058.421652,1
10.0,17.685,,,1767425.0,1721467058.4825218,1
10.0,-0.14499999999999957,0.336889,34.49,1770810.5,1721467058.5433912,1
10.0,-25.12,,,1773188.0,1721467058.604261,1
10.0,-44.7975,,,1768763.5,1721467058.6651304,1
10.0,-78.285,,,1763948.0,1721467058.726,1
10.0,-72.0775,0.333046,34.49,1763249.0,1721467058.7868695,1
10.0,22.072499999999998,,,1764072.0,1721467058.8477392,1
10.0,67.76250000000002,,,1765866.0,1721467058.9086087,1
10.0,66.44999999999999,,,1767866.0,1721467058.9694784,1
10.0,45.15,0.334327,34.49,1769265.0,1721467059.0303478,1
10.0,20.015,,,1772215.5,1721467059.0912175,1
10.0,3.37,,,1775742.0,1721467059.152087,1
10.0,3.8225000000000002,,,1781448.0,1721467059.2129564,1
10.0,-6.7425,0.335608,34.49,1782799.0,1721467059.2738261,1
10.0,-22.1175,,,1785822.5,1721467059.3346956,1
10.0,-45.4,,,1783729.0,1721467059.3955653,1
10.0,-67.00999999999999,,,1775975.5,1721467059.4564347,1
10.0,-87.11500000000001,0.335608,34.49,1770485.0,1721467059.5173044,1
10.0,-108.605,,,1770399.5,1721467059.5781739,1
10.0,-61.59666666666667,,,1772147.0,1721467059.6390436,1
10.0,33.4975,,,1775427.0,1721467059.699913,1
10.0,86.0175,0.336889,34.49,1777081.0,1721467059.7607827,1
10.0,81.855,,,1779831.5,1721467059.8216522,1
10.0,55.8025,,,1783502.0,1721467059.8825219,1
10.0,36.735,,,1788649.0,1721467059.9433913,1
10.0,30.497500000000002,0.333046,34.49,1792238.0,1721467060.0042608,1
10.0,22.900000000000002,,,1797119.5,1721467060.0651305,1
10.0,2.47,,,1802277.5,1721467060.126,1
10.0,-11.463333333333333,,,1806940.0,1721467060.1868696,1
10.0,-34.095000000000006,,,1810317.5,1721467060.247739,1
10.0,-54.19,0.333046,34.47,1810393.0,1721467060.3086088,1
10.0,-76.675,,,1810705.5,1721467060.3694782,1
10.0,-101.28999999999999,,,1813653.0,1721467060.430348,1
10.0,-36.925,,,1821025.5,1721467060.4912174,1
10.0,54.07,0.335608,34.47,1818786.0,1721467060.552087,1
10.0,76.91499999999999,,,1815973.5,1721467060.6129565,1
10.0,53.5675,,,1814233.0,1721467060.6738262,1
10.0,31.9125,,,1813826.0,1721467060.7346957,1
10.0,23.123333333333335,0.33817,34.47,1813431.0,1721467060.7955651,1
10.0,22.22,,,1814948.0,1721467060.8564348,1
10.0,11.285,,,1817347.0,1721467060.9173043,1
10.0,-19.6425,,,1819314.0,1721467060.978174,1
10.0,-43.6225,0.348417,34.47,1816857.5,1721467061.0390434,1
10.0,-77.57000000000001,,,1809707.0,1721467061.0999131,1
10.0,-101.55249999999998,,,1802630.0,1721467061.1607826,1
10.0,-34.9175,,,1799022.0,1721467061.2216523,1
10.0,51.050000000000004,0.359946,34.47,1797665.5,1721467061.2825217,1
10.0,74.10666666666667,,,1796781.0,1721467061.3433914,1
10.0,54.775000000000006,,,1795399.0,1721467061.4042609,1
10.0,33.8725,,,1795216.0,1721467061.4651306,1
10.0,19.92,0.345855,34.47,1795218.5,1721467061.526,1
10.0,12.6,,,1795755.0,1721467061.5868695,1
10.0,2.32,,,1796891.5,1721467061.6477392,1
10.0,-23.14,,,1797879.5,1721467061.7086086,1
10.0,-46.39,0.348417,34.47,1793867.0,1721467061.7694783,1
10.0,-87.06,,,1783755.0,1721467061.8303478,1
10.0,-78.5425,,,1776477.0,1721467061.8912175,1
10.0,-0.2600000000000004,,,1773044.0,1721467061.952087,1
10.0,60.8575,0.350979,34.47,1771178.0,1721467062.0129566,1
10.0,74.12,,,1769689.0,1721467062.073826,1
10.0,53.265,,,1769689.0,1721467062.1346958,1
10.0,36.875,,,1769798.5,1721467062.1955652,1
10.0,28.53,0.350979,34.5,1770317.0,1721467062.256435,1
10.0,21.305,,,1770283.0,1721467062.3173044,1
10.0,2.5624999999999996,,,1771693.0,1721467062.3781738,1
10.0,-23.002499999999998,,,1776797.0,1721467062.4390435,1
10.0,-45.18333333333334,,,1780709.0,1721467062.499913,1
10.0,-72.16499999999999,0.349698,34.5,1785169.0,1721467062.5607827,1
10.0,-106.64,,,1788580.0,1721467062.6216521,1
10.0,-69.35499999999999,,,1786164.5,1721467062.6825218,1
10.0,29.755000000000003,,,1783456.0,1721467062.7433913,1
10.0,77.565,0.350979,34.5,1783081.0,1721467062.804261,1
10.0,72.9075,,,1782605.0,1721467062.8651304,1
10.0,52.8725,,,1781544.5,1721467062.926,1
10.0,37.8175,,,1781527.0,1721467062.9868696,1
10.0,33.7325,0.357384,34.5,1780937.0,1721467063.0477393,1
10.0,23.939999999999998,,,1781642.5,1721467063.1086087,1
10.0,7.3149999999999995,,,1782095.0,1721467063.1694782,1
10.0,-18.125,,,1779317.5,1721467063.2303479,1
10.0,-43.022499999999994,0.361227,34.49,1771436.0,1721467063.2912173,1
10.0,-65.10499999999999,,,1763178.5,1721467063.352087,1
10.0,-100.88,,,1759674.0,1721467063.4129565,1
10.0,-66.3175,,,1760112.0,1721467063.4738262,1
10.0,32.5775,0.36635,34.49,1760271.0,1721467063.5346956,1
10.0,77.3175,,,1760300.0,1721467063.5955653,1
10.0,68.5975,,,1760213.0,1721467063.6564348,1
10.0,47.71666666666667,,,1760513.0,1721467063.7173045,1
10.0,36.7975,0.367631,34.49,1761289.5,1721467063.778174,1
10.0,32.895,,,1762800.0,1721467063.8390436,1
10.0,26.9625,,,1764150.5,1721467063.899913,1
10.0,8.0775,,,1765747.0,1721467063.9607825,1
10.0,-21.5225,0.36635,34.49,1767091.0,1721467064.0216522,1
10.0,-51.112500000000004,,,1762936.0,1721467064.0825217,1
10.0,-82.48499999999999,,,1754063.0,1721467064.1433914,1
10.0,-108.965,,,1748570.0,1721467064.2042608,1
10.0,-59.973333333333336,0.368912,34.47,1747791.5,1721467064.2651305,1
10.0,27.505,,,1749630.0,1721467064.326,1
10.0,72.4975,,,1752146.0,1721467064.3868697,1
10.0,64.3225,,,1757000.5,1721467064.4477391,1
10.0,44.7325,0.371474,34.47,1761696.0,1721467064.5086088,1
10.0,36.879999999999995,,,1766410.0,1721467064.5694783,1
10.0,33.3825,,,1775579.0,1721467064.630348,1
10.0,20.93,,,1777265.0,1721467064.6912174,1
10.0,-0.21499999999999986,0.372755,34.47,1777401.0,1721467064.7520869,1
10.0,-29.975,,,1776695.0,1721467064.8129566,1
10.0,-54.093333333333334,,,1769224.5,1721467064.873826,1
10.0,-76.89750000000001,,,1760648.0,1721467064.9346957,1
10.0,-110.1025,,,1755493.0,1721467064.9955652,1
10.0,-73.30499999999999,0.372755,34.47,1752842.0,1721467065.0564349,1
10.0,28.2325,,,1752264.0,1721467065.1173043,1
10.0,76.9575,,,1751470.0,1721467065.178174,1
10.0,71.965,,,1752052.5,1721467065.2390435,1
10.0,52.285000000000004,0.370193,34.47,1752919.0,1721467065.2999132,1
10.0,38.887499999999996,,,1754462.5,1721467065.3607826,1
10.0,37.24,,,1756493.0,1721467065.421652,1
10.0,29.9875,,,1758708.0,1721467065.4825218,1
10.0,14.0325,0.370193,34.47,1761478.0,1721467065.5433912,1
10.0,-11.57,,,1763082.5,1721467065.604261,1
10.0,-37.39,,,1758274.0,1721467065.6651304,1
10.0,-60.2525,,,1752390.5,1721467065.726,1
10.0,-94.05000000000001,0.371474,34.47,1749430.0,1721467065.7868695,1
10.0,-64.41749999999999,,,1749186.0,1721467065.8477392,1
10.0,26.5,,,1750157.0,1721467065.9086087,1
10.0,64.585,,,1751054.0,1721467065.9694784,1
10.0,55.81333333333333,0.375317,34.47,1752127.0,1721467066.0303478,1
10.0,34.89,,,1753506.0,1721467066.0912175,1
10.0,23.325,,,1756382.0,1721467066.152087,1
10.0,21.955000000000002,,,1759548.0,1721467066.2129564,1
10.0,17.9175,0.377879,34.49,1763608.5,1721467066.2738261,1
10.0,4.5725,,,1770396.0,1721467066.3346956,1
10.0,-13.127500000000001,,,1775249.0,1721467066.3955653,1
10.0,-35.6175,,,1781393.0,1721467066.4564347,1
10.0,-54.6375,0.374036,34.49,1787385.0,1721467066.5173044,1
10.0,-90.58500000000001,,,1796823.0,1721467066.5781739,1
10.0,-80.76333333333334,,,1797993.0,1721467066.6390436,1
10.0,-1.0199999999999996,,,1796590.0,1721467066.699913,1
10.0,61.82,0.386845,34.49,1794381.0,1721467066.7607827,1
10.0,66.5875,,,1791710.0,1721467066.8216522,1
10.0,42.88,,,1789564.0,1721467066.8825219,1
10.0,29.515,,,1788047.0,1721467066.9433913,1
10.0,19.972500000000004,0.371474,34.49,1787620.0,1721467067.0042608,1
10.0,11.747499999999999,,,1786991.0,1721467067.0651305,1
10.0,-3.67,,,1787034.0,1721467067.126,1
10.0,-22.75,,,1786797.0,1721467067.1868696,1
10.0,-40.215,,,1781939.5,1721467067.247739,1
10.0,-65.815,0.371474,34.47,1772532.0,1721467067.3086088,1
10.0,-90.33749999999999,,,1766260.5,1721467067.3694782,1
10.0,-29.807499999999997,,,1763064.0,1721467067.430348,1
