ID,empatica_bvp,empatica_eda,empatica_temp,samsung_bvp,time,CL
10.0,76.54333333333334,0.40473,34.47,2127261.0,1721467271.0458333,0
10.0,19.769333333333332,0.531528,34.47,2131882.6666666665,1721467271.2791667,0
10.0,-89.57266666666666,0.464927,34.47,2158062.1666666665,1721467271.5125,0
10.0,48.400666666666666,,,2209730.1666666665,1721467271.7458334,0
10.0,88.22533333333334,0.420099,34.47,2247282.0,1721467271.9791667,0
10.0,110.64133333333334,0.414976,34.47,2233658.1666666665,1721467272.2125,0
10.0,-254.68133333333336,0.411134,34.49,2231190.4,1721467272.4458334,0
10.0,-111.48666666666668,0.407292,34.49,2238984.5,1721467272.6791666,0
10.0,12.138666666666667,0.411134,34.49,2268951.8333333335,1721467272.9125,0
10.0,-9.276666666666666,0.414976,34.49,2278898.5,1721467273.1458333,0
10.0,115.37533333333334,0.42138,34.47,2291184.3333333335,1721467273.3791666,0
10.0,40.53666666666666,0.422661,34.47,2301073.1666666665,1721467273.6125,0
10.0,-23.274,0.430346,34.47,2265212.0,1721467273.8458333,0
10.0,-62.285999999999994,0.435469,34.47,2244907.1666666665,1721467274.0791667,0
10.0,44.04785714285714,0.432907,34.47,2257124.1666666665,1721467274.3125,0
10.0,10.517333333333333,0.431627,34.47,2261378.5,1721467274.5458333,0
10.0,-32.07066666666667,0.430346,34.47,2256214.5,1721467274.7791667,0
10.0,48.88466666666667,0.432907,34.47,2262548.4,1721467275.0125,0
10.0,12.745333333333333,,,2276860.0,1721467275.2458334,0
10.0,-48.83,0.426503,34.47,2281804.3333333335,1721467275.4791667,0
10.0,34.425333333333334,0.425223,34.47,2295023.1666666665,1721467275.7125,0
10.0,-23.141333333333332,0.423942,34.47,2315616.5,1721467275.9458334,0
10.0,-48.596000000000004,0.422661,34.47,2325720.8333333335,1721467276.1791666,0
10.0,34.644000000000005,0.426503,34.49,2338666.0,1721467276.4125,0
10.0,-25.875999999999998,0.426503,34.49,2347432.1666666665,1721467276.6458333,0
10.0,-19.71,0.426503,34.49,2349705.8333333335,1721467276.8791666,0
10.0,47.27733333333333,0.426503,34.49,2361557.0,1721467277.1125,0
10.0,-18.33066666666667,0.426503,34.49,2365296.3333333335,1721467277.3458333,0
10.0,-20.012666666666668,0.425223,34.49,2367551.3333333335,1721467277.5791667,0
10.0,50.06428571428571,0.423942,34.49,2376551.1666666665,1721467277.8125,0
10.0,4.590666666666666,0.42138,34.49,2377067.4,1721467278.0458333,0
10.0,-77.72066666666666,0.420099,34.49,2376023.3333333335,1721467278.2791667,0
10.0,53.69066666666666,0.420099,34.49,2383480.0,1721467278.5125,0
10.0,40.858666666666664,,,2390536.0,1721467278.7458334,0
10.0,-25.93466666666667,0.423942,34.49,2380730.0,1721467278.9791667,0
10.0,-53.37666666666667,0.422661,34.49,2384135.1666666665,1721467279.2125,0
10.0,48.56066666666667,0.423942,34.49,2392571.8333333335,1721467279.4458334,0
10.0,17.628666666666668,0.42138,34.49,2392465.0,1721467279.6791666,0
10.0,-53.64466666666667,0.42138,34.49,2389080.5,1721467279.9125,0
10.0,-1.9959999999999998,0.42138,34.49,2394121.8,1721467280.1458333,0
10.0,39.39066666666667,0.420099,34.5,2402980.3333333335,1721467280.3791666,0
10.0,-4.017333333333334,0.416257,34.5,2397797.6666666665,1721467280.6125,0
10.0,-57.966,0.418819,34.5,2398238.0,1721467280.8458333,0
10.0,40.93866666666666,0.414976,34.5,2405452.8333333335,1721467281.0791667,0
10.0,13.652142857142858,0.414976,34.49,2410295.6,1721467281.3125,0
10.0,-43.024,0.417538,34.49,2402655.8333333335,1721467281.5458333,0
10.0,-8.542666666666667,0.416257,34.49,2407244.3333333335,1721467281.7791667,0
10.0,30.242,0.414976,34.49,2415308.8333333335,1721467282.0125,0
10.0,-15.207333333333333,,,2407262.3333333335,1721467282.2458334,0
10.0,-50.15933333333333,0.414976,34.5,2403767.3333333335,1721467282.4791667,0
10.0,42.94733333333333,0.411134,34.5,2409728.8333333335,1721467282.7125,0
10.0,2.636666666666667,0.411134,34.5,2406502.6666666665,1721467282.9458334,0
10.0,-53.16866666666667,0.409853,34.5,2399389.0,1721467283.1791666,0
10.0,40.89466666666667,0.412415,34.49,2402565.5,1721467283.4125,0
10.0,-8.555333333333332,0.408572,34.49,2397421.3333333335,1721467283.6458333,0
10.0,-69.35466666666667,0.412415,34.49,2388724.3333333335,1721467283.8791666,0
10.0,60.59866666666667,0.412415,34.49,2391867.5,1721467284.1125,0
10.0,20.693333333333335,0.411134,34.49,2384135.3333333335,1721467284.3458333,0
10.0,-69.01533333333333,0.411134,34.49,2371762.8333333335,1721467284.5791667,0
10.0,59.46071428571429,0.411134,34.49,2372880.8333333335,1721467284.8125,0
10.0,38.34066666666667,0.411134,34.49,2364778.8333333335,1721467285.0458333,0
10.0,-48.90133333333333,0.409853,34.5,2349890.8333333335,1721467285.2791667,0
10.0,5.633333333333334,0.407292,34.5,2350664.3333333335,1721467285.5125,0
10.0,56.04666666666667,,,2349712.6666666665,1721467285.7458334,0
10.0,-3.278666666666666,0.407292,34.5,2329976.3333333335,1721467285.9791667,0
10.0,-58.794,0.407292,34.5,2328053.5,1721467286.2125,0
10.0,58.46666666666667,0.408572,34.5,2331804.0,1721467286.4458334,0
10.0,29.036666666666665,0.40473,34.5,2313448.8,1721467286.6791666,0
10.0,-74.376,0.406011,34.5,2309420.5,1721467286.9125,0
10.0,42.739333333333335,0.408572,34.5,2315159.5,1721467287.1458333,0
10.0,47.88999999999999,0.408572,34.53,2313663.6666666665,1721467287.3791666,0
10.0,-22.514,0.406011,34.53,2295563.3333333335,1721467287.6125,0
10.0,-73.85,0.407292,34.53,2296617.1666666665,1721467287.8458333,0
10.0,55.082,0.407292,34.53,2306982.6,1721467288.0791667,0
10.0,31.18142857142857,0.407292,34.49,2301683.5,1721467288.3125,0
10.0,-45.552,0.403449,34.49,2296544.6666666665,1721467288.5458333,0
10.0,-21.954666666666665,0.402168,34.49,2304673.3333333335,1721467288.7791667,0
10.0,51.18666666666666,0.402168,34.49,2315155.0,1721467289.0125,0
10.0,0.07666666666666609,,,2301789.1666666665,1721467289.2458334,0
10.0,-76.83666666666667,0.400888,34.5,2302533.6,1721467289.4791667,0
10.0,50.574666666666666,0.400888,34.5,2311611.3333333335,1721467289.7125,0
10.0,24.60533333333333,0.403449,34.5,2310317.5,1721467289.9458334,0
10.0,-65.67933333333333,0.403449,34.5,2304106.5,1721467290.1791666,0
10.0,10.132000000000001,0.40473,34.53,2311703.5,1721467290.4125,0
10.0,41.07533333333333,0.40473,34.53,2317150.5,1721467290.6458333,0
10.0,-19.644,0.403449,34.53,2302358.6,1721467290.8791666,0
10.0,-57.192,0.403449,34.53,2304601.5,1721467291.1125,0
10.0,64.86866666666667,0.400888,34.5,2314668.6666666665,1721467291.3458333,0
10.0,28.83533333333333,0.399607,34.5,2303294.3333333335,1721467291.5791667,0
10.0,-67.33285714285715,0.398326,34.5,2298032.0,1721467291.8125,0
10.0,-11.898666666666669,0.398326,34.5,2304776.1666666665,1721467292.0458333,0
10.0,54.635999999999996,0.398326,34.53,2312446.2,1721467292.2791667,0
10.0,7.349333333333333,0.400888,34.53,2295556.3333333335,1721467292.5125,0
10.0,-79.49933333333335,,,2294985.0,1721467292.7458334,0
10.0,56.01866666666667,0.402168,34.53,2303549.5,1721467292.9791667,0
10.0,36.79333333333333,0.400888,34.53,2299827.0,1721467293.2125,0
10.0,-44.144,0.399607,34.53,2292029.3333333335,1721467293.4458334,0
10.0,-31.379999999999995,0.399607,34.53,2295831.0,1721467293.6791666,0
10.0,61.75333333333334,0.400888,34.53,2306905.3333333335,1721467293.9125,0
10.0,16.54,0.395764,34.53,2296472.0,1721467294.1458333,0
10.0,-89.43733333333333,0.394484,34.53,2293504.0,1721467294.3791666,0
10.0,51.532000000000004,0.394484,34.53,2302895.6666666665,1721467294.6125,0
10.0,48.55533333333334,0.394484,34.53,2309701.6,1721467294.8458333,0
10.0,-31.324,0.395764,34.53,2288410.3333333335,1721467295.0791667,0
10.0,-68.81642857142857,0.398326,34.55,2285140.3333333335,1721467295.3125,0
10.0,65.09666666666666,0.397045,34.55,2293833.8333333335,1721467295.5458333,0
10.0,26.69066666666667,0.397045,34.55,2287228.5,1721467295.7791667,0
10.0,-76.86333333333333,0.395764,34.55,2279730.6666666665,1721467296.0125,0
10.0,39.016,,,2285096.0,1721467296.2458334,0
10.0,42.260666666666665,0.394484,34.5,2292255.5,1721467296.4791667,0
10.0,-35.76066666666667,0.391922,34.5,2277868.3333333335,1721467296.7125,0
10.0,-21.112666666666666,0.391922,34.5,2279937.6666666665,1721467296.9458334,0
10.0,43.72933333333334,0.393203,34.5,2288637.6666666665,1721467297.1791666,0
10.0,-25.06866666666667,0.393203,34.5,2276358.8,1721467297.4125,0
10.0,-73.75133333333333,0.390641,34.5,2273354.3333333335,1721467297.6458333,0
10.0,67.666,0.391922,34.5,2281344.8333333335,1721467297.8791666,0
10.0,34.915333333333336,0.394484,34.5,2277560.8333333335,1721467298.1125,0
10.0,-72.84266666666667,0.393203,34.53,2264819.3333333335,1721467298.3458333,0
10.0,-0.2113333333333344,0.391922,34.53,2270128.3333333335,1721467298.5791667,0
10.0,62.785714285714285,0.393203,34.53,2281955.2,1721467298.8125,0
10.0,3.1813333333333333,0.391922,34.53,2264893.8333333335,1721467299.0458333,0
10.0,-86.47066666666666,0.390641,34.53,2258846.8333333335,1721467299.2791667,0
10.0,67.90666666666667,0.38808,34.53,2266835.6666666665,1721467299.5125,0
10.0,38.94133333333333,,,2264462.5,1721467299.7458334,0
10.0,-64.024,0.386799,34.53,2248498.8333333335,1721467299.9791667,0
10.0,-10.033999999999999,0.386799,34.53,2251881.3333333335,1721467300.2125,0
10.0,55.086,0.386799,34.53,2261911.2,1721467300.4458334,0
10.0,-10.761333333333333,0.38808,34.53,2242598.5,1721467300.6791666,0
10.0,-59.04266666666667,0.38808,34.53,2235391.1666666665,1721467300.9125,0
10.0,66.24266666666666,0.38936,34.53,2240851.0,1721467301.1458333,0
10.0,22.962666666666667,0.38936,34.53,2227164.3333333335,1721467301.3791666,0
10.0,-90.79933333333334,0.38936,34.53,2213109.6666666665,1721467301.6125,0
10.0,45.035999999999994,0.385518,34.53,2217179.3333333335,1721467301.8458333,0
10.0,65.26733333333333,0.384237,34.53,2217986.8333333335,1721467302.0791667,0
10.0,-6.6242857142857146,0.384237,34.53,2192517.2,1721467302.3125,0
10.0,-97.72866666666667,0.382957,34.53,2189181.6666666665,1721467302.5458333,0
10.0,52.284666666666666,0.382957,34.53,2197899.5,1721467302.7791667,0
10.0,57.40333333333333,0.381676,34.53,2197625.5,1721467303.0125,0
10.0,-9.980666666666668,,,2178311.0,1721467303.2458334,0
10.0,-85.36733333333332,0.385518,34.53,2180733.5,1721467303.4791667,0
10.0,47.885999999999996,0.386799,34.53,2191907.6,1721467303.7125,0
10.0,47.272000000000006,0.384237,34.53,2195141.3333333335,1721467303.9458334,0
10.0,-13.176,0.385518,34.53,2181587.8333333335,1721467304.1791666,0
10.0,-67.37599999999999,0.384237,34.55,2186406.1666666665,1721467304.4125,0
10.0,50.67866666666667,0.384237,34.55,2200266.1666666665,1721467304.6458333,0
10.0,29.433333333333334,0.384237,34.55,2201697.8333333335,1721467304.8791666,0
10.0,-38.78333333333333,0.381676,34.55,2197960.4,1721467305.1125,0
10.0,-56.629333333333335,0.380395,34.55,2206716.8333333335,1721467305.3458333,0
10.0,53.190666666666665,0.380395,34.55,2223008.8333333335,1721467305.5791667,0
10.0,18.892857142857142,0.381676,34.55,2222565.8333333335,1721467305.8125,0
10.0,-65.98066666666666,0.379114,34.55,2222598.3333333335,1721467306.0458333,0
10.0,-7.446666666666664,0.382957,34.55,2233696.3333333335,1721467306.2791667,0
10.0,46.699333333333335,0.382957,34.55,2245141.8333333335,1721467306.5125,0
10.0,-7.770666666666667,,,2235044.4,1721467306.7458334,0
10.0,-91.63266666666667,0.381676,34.55,2238840.3333333335,1721467306.9791667,0
10.0,51.10066666666667,0.384237,34.55,2250379.6666666665,1721467307.2125,0
10.0,27.672000000000004,0.382957,34.53,2252790.6666666665,1721467307.4458334,0
10.0,-68.36666666666666,0.381676,34.53,2243758.6666666665,1721467307.6791666,0
10.0,33.89733333333333,0.380395,34.53,2247805.2,1721467307.9125,0
10.0,51.56666666666667,0.376553,34.53,2253858.0,1721467308.1458333,0
10.0,-30.82666666666666,0.376553,34.55,2239123.8333333335,1721467308.3791666,0
10.0,-24.701999999999998,0.376553,34.55,2240745.3333333335,1721467308.6125,0
10.0,54.894,0.375272,34.55,2250230.0,1721467308.8458333,0
10.0,-8.6,0.377833,34.55,2234873.8333333335,1721467309.0791667,0
10.0,-63.32999999999999,0.376553,34.53,2231295.6,1721467309.3125,0
10.0,69.61,0.379114,34.53,2237423.1666666665,1721467309.5458333,0
10.0,29.401333333333334,0.379114,34.53,2226321.3333333335,1721467309.7791667,0
10.0,-79.57133333333334,0.377833,34.53,2215112.6666666665,1721467310.0125,0
10.0,30.184666666666665,,,2221125.0,1721467310.2458334,0
10.0,63.782000000000004,0.377833,34.53,2225270.6666666665,1721467310.4791667,0
10.0,-10.927333333333335,0.379114,34.53,2206988.0,1721467310.7125,0
10.0,-93.13799999999999,0.375272,34.53,2208038.6666666665,1721467310.9458334,0
10.0,59.54600000000001,0.373991,34.53,2219028.1666666665,1721467311.1791666,0
10.0,46.03,0.373991,34.53,2219825.6666666665,1721467311.4125,0
10.0,-40.145999999999994,0.37271,34.53,2208480.3333333335,1721467311.6458333,0
10.0,-20.913999999999998,0.375272,34.53,2212641.6,1721467311.8791666,0
10.0,46.736,0.375272,34.53,2223817.8333333335,1721467312.1125,0
10.0,-6.994,0.376553,34.53,2214756.8333333335,1721467312.3458333,0
10.0,-83.87466666666667,0.376553,34.53,2215930.6666666665,1721467312.5791667,0
10.0,53.547142857142866,0.377833,34.53,2227851.1666666665,1721467312.8125,0
10.0,29.696,0.376553,34.53,2229379.0,1721467313.0458333,0
10.0,-71.59666666666666,0.375272,34.53,2222689.3333333335,1721467313.2791667,0
10.0,9.241333333333335,0.373991,34.53,2231529.1666666665,1721467313.5125,0
10.0,47.942666666666675,,,2241132.4,1721467313.7458334,0
10.0,-28.387333333333334,0.375272,34.53,2227420.0,1721467313.9791667,0
10.0,-55.68133333333333,0.376553,34.53,2230158.2,1721467314.2125,0
10.0,67.03733333333334,0.376553,34.53,2240452.6666666665,1721467314.4458334,0
10.0,22.454666666666665,0.373991,34.53,2227324.8333333335,1721467314.6791666,0
10.0,-84.57866666666668,0.375272,34.53,2221846.6666666665,1721467314.9125,0
10.0,48.977333333333334,0.377833,34.53,2227636.3333333335,1721467315.1458333,0
10.0,47.29666666666667,0.376553,34.53,2226553.8333333335,1721467315.3791666,0
10.0,-47.001999999999995,0.376553,34.53,2214566.4,1721467315.6125,0
10.0,-20.322666666666667,0.373991,34.53,2218074.0,1721467315.8458333,0
10.0,68.80466666666666,0.375272,34.53,2227810.0,1721467316.0791667,0
10.0,8.982142857142858,0.371429,34.53,2216078.8333333335,1721467316.3125,0
10.0,-103.02733333333335,0.371429,34.53,2214269.5,1721467316.5458333,0
10.0,52.68266666666667,0.37271,34.53,2224614.0,1721467316.7791667,0
10.0,47.35,0.370149,34.53,2228349.5,1721467317.0125,0
10.0,-56.61866666666666,,,2218664.1666666665,1721467317.2458334,0
10.0,-3.2433333333333336,0.370149,34.53,2226054.0,1721467317.4791667,0
10.0,48.034,0.371429,34.53,2235530.3333333335,1721467317.7125,0
10.0,-31.228666666666662,0.373991,34.53,2224822.8,1721467317.9458334,0
10.0,3.526000000000003,0.37271,34.53,2228790.1666666665,1721467318.1791666,0
10.0,48.955999999999996,0.371429,34.53,2237772.6666666665,1721467318.4125,0
10.0,-18.233999999999998,0.37271,34.53,2229017.3333333335,1721467318.6458333,0
10.0,-37.16266666666666,0.37271,34.53,2233980.1666666665,1721467318.8791666,0
10.0,60.60666666666667,0.368868,34.53,2245070.1666666665,1721467319.1125,0
10.0,12.240666666666668,0.368868,34.53,2235804.2,1721467319.3458333,0
10.0,-94.23066666666666,0.368868,34.53,2236401.5,1721467319.5791667,0
10.0,35.13142857142857,0.370149,34.53,2246261.1666666665,1721467319.8125,0
10.0,58.6,0.367587,34.53,2253584.5,1721467320.0458333,0
10.0,0.5566666666666672,0.368868,34.53,2242203.6666666665,1721467320.2791667,0
10.0,-93.35,0.370149,34.53,2246340.6,1721467320.5125,0
10.0,21.136666666666667,,,2257741.6666666665,1721467320.7458334,0
10.0,53.216,0.370149,34.53,2267083.6666666665,1721467320.9791667,0
10.0,3.1346666666666656,0.370149,34.53,2254227.8333333335,1721467321.2125,0
10.0,-85.30333333333333,0.370149,34.53,2257903.3333333335,1721467321.4458334,0
10.0,32.70933333333333,0.370149,34.53,2269982.5,1721467321.6791666,0
10.0,43.77533333333333,0.366306,34.53,2274834.5,1721467321.9125,0
10.0,-8.532,0.368868,34.53,2264799.0,1721467322.1458333,0
10.0,-68.56866666666666,0.366306,34.55,2270027.5,1721467322.3791666,0
10.0,55.97533333333333,0.366306,34.55,2282671.6666666665,1721467322.6125,0
10.0,28.780666666666665,0.365025,34.55,2286067.6,1721467322.8458333,0
10.0,-46.483333333333334,0.366306,34.55,2279708.0,1721467323.0791667,0
10.0,-47.45357142857143,0.368868,34.53,2287521.8333333335,1721467323.3125,0
10.0,53.88733333333333,0.370149,34.53,2301452.6666666665,1721467323.5458333,0
10.0,13.813999999999998,0.368868,34.53,2292619.0,1721467323.7791667,0
10.0,-80.17399999999999,0.367587,34.53,2290259.5,1721467324.0125,0
10.0,41.68,,,2298090.0,1721467324.2458334,0
10.0,41.07266666666667,0.367587,34.53,2304439.5,1721467324.4791667,0
10.0,-27.967333333333332,0.367587,34.53,2290210.1666666665,1721467324.7125,0
10.0,-60.116,0.365025,34.53,2293251.6666666665,1721467324.9458334,0
10.0,54.826,0.365025,34.53,2304375.8333333335,1721467325.1791666,0
10.0,22.268666666666665,0.363745,34.53,2295407.5,1721467325.4125,0
10.0,-70.196,0.363745,34.53,2289455.3333333335,1721467325.6458333,0
10.0,36.94533333333333,0.362464,34.53,2295460.5,1721467325.8791666,0
10.0,33.934666666666665,0.362464,34.53,2300713.2,1721467326.1125,0
10.0,-46.42933333333333,0.365025,34.5,2286581.3333333335,1721467326.3458333,0
10.0,-22.58266666666667,0.366306,34.5,2289297.3333333335,1721467326.5791667,0
10.0,53.62357142857143,0.365025,34.5,2299159.1666666665,1721467326.8125,0
10.0,-3.758666666666667,0.368868,34.5,2283094.5,1721467327.0458333,0
10.0,-69.71466666666667,0.366306,34.53,2281566.1666666665,1721467327.2791667,0
10.0,63.74,0.366306,34.53,2290161.6666666665,1721467327.5125,0
10.0,24.303333333333335,,,2276672.6666666665,1721467327.7458334,0
10.0,-82.59933333333333,0.365025,34.53,2270920.1666666665,1721467327.9791667,0
10.0,41.794666666666664,0.361183,34.53,2276479.0,1721467328.2125,0
10.0,48.12866666666667,0.361183,34.53,2280438.2,1721467328.4458334,0
10.0,-29.058,0.359902,34.53,2261332.8333333335,1721467328.6791666,0
10.0,-23.01,0.362464,34.53,2260831.5,1721467328.9125,0
10.0,59.13333333333333,0.362464,34.53,2269656.6666666665,1721467329.1458333,0
10.0,7.187333333333333,0.362464,34.5,2254808.3333333335,1721467329.3791666,0
10.0,-102.15933333333332,0.363745,34.5,2252753.6666666665,1721467329.6125,0
10.0,62.95066666666666,0.366306,34.5,2261149.8,1721467329.8458333,0
10.0,55.802,0.362464,34.5,2266350.2,1721467330.0791667,0
10.0,-23.007857142857144,0.363745,34.53,2246299.3333333335,1721467330.3125,0
10.0,-86.84200000000001,0.361183,34.53,2247126.3333333335,1721467330.5458333,0
10.0,68.89066666666668,0.359902,34.53,2258839.8333333335,1721467330.7791667,0
10.0,41.724666666666664,0.361183,34.53,2257742.3333333335,1721467331.0125,0
10.0,-45.27133333333334,,,2243709.8,1721467331.2458334,0
10.0,-33.77066666666666,0.358622,34.53,2247170.8333333335,1721467331.4791667,0
10.0,53.97533333333333,0.358622,34.53,2260172.3333333335,1721467331.7125,0
10.0,9.141333333333332,0.357341,34.53,2252625.3333333335,1721467331.9458334,0
10.0,-82.866,0.359902,34.53,2245130.3333333335,1721467332.1791666,0
10.0,59.10533333333333,0.362464,34.53,2251136.1666666665,1721467332.4125,0
10.0,28.491333333333333,0.362464,34.53,2257717.0,1721467332.6458333,0
10.0,-65.65,0.361183,34.53,2242422.6666666665,1721467332.8791666,0
10.0,-3.8206666666666687,0.359902,34.53,2245800.0,1721467333.1125,0
10.0,46.57866666666667,0.359902,34.55,2258404.3333333335,1721467333.3458333,0
10.0,-23.398666666666667,0.357341,34.55,2243804.6666666665,1721467333.5791667,0
10.0,-61.441428571428574,0.357341,34.55,2239862.6666666665,1721467333.8125,0
10.0,59.88999999999999,0.357341,34.55,2247676.6,1721467334.0458333,0
10.0,7.0840000000000005,0.35606,34.55,2242701.5,1721467334.2791667,0
10.0,-88.85666666666665,0.357341,34.55,2228171.8333333335,1721467334.5125,0
10.0,65.914,,,2231999.5,1721467334.7458334,0
10.0,33.66466666666667,0.358622,34.55,2232059.3333333335,1721467334.9791667,0
10.0,-81.52333333333333,0.359902,34.55,2209874.5,1721467335.2125,0
10.0,33.758,0.359902,34.53,2207869.0,1721467335.4458334,0
10.0,44.30133333333333,0.359902,34.53,2212927.1666666665,1721467335.6791666,0
10.0,-52.516,0.359902,34.53,2190289.3333333335,1721467335.9125,0
10.0,5.189333333333334,0.358622,34.53,2184918.3333333335,1721467336.1458333,0
10.0,69.646,0.35606,34.55,2191030.5,1721467336.3791666,0
10.0,-10.666666666666666,0.35606,34.55,2168826.5,1721467336.6125,0
10.0,-86.27266666666667,0.354779,34.55,2161018.0,1721467336.8458333,0
10.0,82.366,0.35606,34.55,2167086.8,1721467337.0791667,0
10.0,58.46071428571429,0.358622,34.55,2164774.8333333335,1721467337.3125,0
10.0,-43.266,0.358622,34.55,2143375.5,1721467337.5458333,0
10.0,-63.73466666666666,0.357341,34.55,2148292.1666666665,1721467337.7791667,0
10.0,77.06333333333333,0.35606,34.55,2164585.1666666665,1721467338.0125,0
10.0,38.12533333333333,,,2161206.3333333335,1721467338.2458334,0
10.0,-53.42066666666666,0.357341,34.55,2147455.3333333335,1721467338.4791667,0
10.0,-27.874666666666666,0.357341,34.55,2154490.0,1721467338.7125,0
10.0,59.85600000000001,0.35606,34.55,2170926.5,1721467338.9458334,0
10.0,15.443333333333332,0.353498,34.55,2164105.1666666665,1721467339.1791666,0
10.0,-73.36866666666668,0.352218,34.53,2161386.1666666665,1721467339.4125,0
10.0,24.077333333333332,0.352218,34.53,2172040.1666666665,1721467339.6458333,0
10.0,34.69333333333334,0.352218,34.53,2185194.0,1721467339.8791666,0
10.0,-30.496666666666666,0.352218,34.53,2176181.0,1721467340.1125,0
10.0,-59.50266666666666,0.354779,34.53,2184090.6666666665,1721467340.3458333,0
10.0,50.93066666666667,0.354779,34.53,2196019.6,1721467340.5791667,0
10.0,8.221428571428572,0.35606,34.53,2200552.6666666665,1721467340.8125,0
10.0,-82.01533333333333,0.354779,34.53,2191467.3333333335,1721467341.0458333,0
10.0,33.37466666666666,0.352218,34.53,2200092.5,1721467341.2791667,0
10.0,37.77133333333333,0.354779,34.53,2212278.5,1721467341.5125,0
10.0,-32.10066666666667,,,2196633.5,1721467341.7458334,0
10.0,-46.83933333333333,0.350937,34.53,2199600.6666666665,1721467341.9791667,0
10.0,54.965333333333334,0.350937,34.53,2211878.1666666665,1721467342.2125,0
10.0,6.626666666666666,0.352218,34.53,2205454.4,1721467342.4458334,0
10.0,-80.51733333333333,0.349656,34.53,2196595.5,1721467342.6791666,0
10.0,60.29933333333334,0.348375,34.53,2202700.0,1721467342.9125,0
10.0,34.564,0.352218,34.53,2208856.6666666665,1721467343.1458333,0
10.0,-62.352,0.352218,34.53,2193883.3333333335,1721467343.3791666,0
10.0,-25.314666666666668,0.352218,34.53,2198764.6666666665,1721467343.6125,0
10.0,72.39666666666666,0.352218,34.53,2212077.0,1721467343.8458333,0
10.0,16.268,0.350937,34.53,2196999.1666666665,1721467344.0791667,0
10.0,-100.48857142857143,0.349656,34.55,2194884.6,1721467344.3125,0
10.0,49.498000000000005,0.348375,34.55,2203696.0,1721467344.5458333,0
10.0,60.26066666666667,0.348375,34.55,2215242.6,1721467344.7791667,0
10.0,-9.317333333333334,0.347094,34.55,2198017.1666666665,1721467345.0125,0
10.0,-77.95,,,2200064.5,1721467345.2458334,0
10.0,64.792,0.347094,34.55,2212396.5,1721467345.4791667,0
10.0,36.46933333333333,0.347094,34.55,2216780.5,1721467345.7125,0
10.0,-61.294666666666664,0.348375,34.55,2205875.5,1721467345.9458334,0
10.0,12.682,0.349656,34.55,2212647.5,1721467346.1791666,0
10.0,50.181333333333335,0.349656,34.55,2225616.6,1721467346.4125,0
10.0,-6.858000000000002,0.349656,34.55,2214258.6666666665,1721467346.6458333,0
10.0,-91.38400000000001,0.348375,34.55,2214524.1666666665,1721467346.8791666,0
10.0,63.99933333333333,0.348375,34.55,2226590.6666666665,1721467347.1125,0
10.0,37.83133333333333,0.345814,34.55,2233613.1666666665,1721467347.3458333,0
10.0,-47.57066666666666,0.345814,34.55,2220798.0,1721467347.5791667,0
10.0,-56.08571428571429,0.347094,34.55,2226584.8,1721467347.8125,0
10.0,61.17133333333333,0.345814,34.55,2240285.3333333335,1721467348.0458333,0
10.0,26.704666666666665,0.344533,34.53,2236838.6666666665,1721467348.2791667,0
10.0,-74.59466666666667,0.345814,34.53,2227578.5,1721467348.5125,0
10.0,28.756666666666668,,,2234184.0,1721467348.7458334,0
10.0,43.87866666666667,0.348375,34.53,2243975.0,1721467348.9791667,0
10.0,-28.484666666666666,0.348375,34.53,2227214.5,1721467349.2125,0
10.0,-41.758,0.347094,34.55,2228161.4,1721467349.4458334,0
10.0,57.31666666666667,0.347094,34.55,2237828.1666666665,1721467349.6791666,0
10.0,1.1353333333333333,0.347094,34.55,2230397.0,1721467349.9125,0
10.0,-85.24333333333334,0.344533,34.55,2221412.0,1721467350.1458333,0
10.0,63.31466666666667,0.343252,34.53,2228675.3333333335,1721467350.3791666,0
10.0,21.936666666666664,0.343252,34.53,2227917.1666666665,1721467350.6125,0
10.0,-89.54266666666668,0.343252,34.53,2210367.6,1721467350.8458333,0
10.0,42.50666666666667,0.341971,34.53,2212599.8333333335,1721467351.0791667,0
10.0,51.71357142857143,0.348375,34.53,2219981.8333333335,1721467351.3125,0
10.0,-28.452666666666666,0.347094,34.53,2196693.3333333335,1721467351.5458333,0
10.0,-47.66866666666667,0.345814,34.53,2193633.1666666665,1721467351.7791667,0
10.0,67.4,0.345814,34.53,2202357.5,1721467352.0125,0
10.0,20.204666666666665,,,2187470.6666666665,1721467352.2458334,0
10.0,-90.47733333333333,0.345814,34.53,2178123.6666666665,1721467352.4791667,0
10.0,59.05,0.344533,34.53,2183983.1666666665,1721467352.7125,0
10.0,54.8,0.344533,34.53,2190594.8,1721467352.9458334,0
10.0,-34.626,0.341971,34.53,2170471.0,1721467353.1791666,0
10.0,-77.99199999999999,0.341971,34.53,2170717.1666666665,1721467353.4125,0
10.0,75.84466666666667,0.34069,34.53,2183182.5,1721467353.6458333,0
10.0,38.264,0.34069,34.53,2183767.6666666665,1721467353.8791666,0
10.0,-71.114,0.343252,34.53,2169851.5,1721467354.1125,0
10.0,-13.392000000000001,0.344533,34.55,2176964.0,1721467354.3458333,0
10.0,57.75333333333333,0.343252,34.55,2192593.6666666665,1721467354.5791667,0
10.0,8.678571428571429,0.345814,34.55,2179321.6666666665,1721467354.8125,0
10.0,-81.64200000000001,0.344533,34.55,2178228.5,1721467355.0458333,0
10.0,54.12666666666667,0.344533,34.53,2188606.3333333335,1721467355.2791667,0
10.0,18.616,0.343252,34.53,2189601.0,1721467355.5125,0
10.0,-81.914,,,2178847.1666666665,1721467355.7458334,0
10.0,38.696000000000005,0.343252,34.53,2185586.1666666665,1721467355.9791667,0
10.0,33.06733333333334,0.34069,34.53,2189872.8333333335,1721467356.2125,0
10.0,-64.74333333333333,0.33941,34.53,2175756.0,1721467356.4458334,0
10.0,-5.9940000000000015,0.33941,34.53,2180082.0,1721467356.6791666,0
10.0,59.25066666666667,0.34069,34.53,2188888.1666666665,1721467356.9125,0
10.0,-22.802,0.34069,34.53,2167240.1666666665,1721467357.1458333,0
10.0,-77.43533333333333,0.34069,34.55,2164560.6666666665,1721467357.3791666,0
10.0,73.02733333333335,0.341971,34.55,2174026.0,1721467357.6125,0
10.0,38.016,0.341971,34.55,2157944.8333333335,1721467357.8458333,0
10.0,-73.24333333333334,0.341971,34.55,2149062.8,1721467358.0791667,0
10.0,22.794285714285717,0.341971,34.55,2154207.3333333335,1721467358.3125,0
10.0,59.22533333333333,0.34069,34.55,2162828.0,1721467358.5458333,0
10.0,-15.874,0.34069,34.55,2144874.8333333335,1721467358.7791667,0
10.0,-62.11533333333333,0.338129,34.55,2145886.8333333335,1721467359.0125,0
10.0,71.326,,,2156408.3333333335,1721467359.2458334,0
10.0,22.072,0.354779,34.55,2143679.2,1721467359.4791667,0
10.0,-77.45466666666668,0.338129,34.55,2140525.0,1721467359.7125,0
10.0,60.620666666666665,0.338129,34.55,2150260.5,1721467359.9458334,0
10.0,47.29600000000001,0.33941,34.55,2151727.5,1721467360.1791666,0
10.0,-49.458,0.33941,34.53,2143806.1666666665,1721467360.4125,0
10.0,-26.48066666666666,0.34069,34.53,2153566.0,1721467360.6458333,0
10.0,62.66733333333334,0.34069,34.53,2168061.2,1721467360.8791666,0
10.0,17.054666666666666,0.341971,34.53,2156968.3333333335,1721467361.1125,0
10.0,-87.98333333333333,0.34069,34.53,2160473.8333333335,1721467361.3458333,0
10.0,26.110666666666663,0.338129,34.53,2175096.6666666665,1721467361.5791667,0
10.0,45.66357142857144,0.338129,34.53,2185819.1666666665,1721467361.8125,0
10.0,-7.669999999999999,0.338129,34.53,2176450.5,1721467362.0458333,0
10.0,-90.22,0.338129,34.53,2183435.6,1721467362.2791667,0
10.0,38.620666666666665,0.338129,34.53,2197543.3333333335,1721467362.5125,0
10.0,29.424,,,2204600.8333333335,1721467362.7458334,0
10.0,-54.326666666666675,0.341971,34.53,2198071.8333333335,1721467362.9791667,0
10.0,0.7860000000000014,0.341971,34.53,2206949.5,1721467363.2125,0
10.0,39.714666666666666,0.341971,34.57,2217344.3333333335,1721467363.4458334,0
10.0,-17.066,0.33941,34.57,2208053.4,1721467363.6791666,0
10.0,-65.79799999999999,0.338129,34.57,2214139.8333333335,1721467363.9125,0
10.0,63.22866666666667,0.336848,34.57,2227088.8333333335,1721467364.1458333,0
10.0,30.532666666666668,0.336848,34.53,2223354.1666666665,1721467364.3791666,0
10.0,-52.096000000000004,0.336848,34.53,2220170.6666666665,1721467364.6125,0
10.0,-15.759333333333332,0.336848,34.53,2228269.3333333335,1721467364.8458333,0
10.0,52.85533333333333,0.336848,34.53,2240110.2,1721467365.0791667,0
10.0,11.955714285714285,0.336848,34.53,2230309.6666666665,1721467365.3125,0
10.0,-85.282,0.33941,34.53,2233644.0,1721467365.5458333,0
10.0,42.45933333333333,0.33941,34.53,2244779.5,1721467365.7791667,0
10.0,56.224,0.34069,34.53,2254525.5,1721467366.0125,0
10.0,-8.951333333333334,,,2240870.8333333335,1721467366.2458334,0
10.0,-97.104,0.33941,34.53,2244818.3333333335,1721467366.4791667,0
10.0,58.440666666666665,0.33941,34.53,2256289.1666666665,1721467366.7125,0
10.0,47.931333333333335,0.33941,34.53,2267160.0,1721467366.9458334,0
10.0,-22.917333333333332,0.341971,34.53,2252662.6666666665,1721467367.1791666,0
10.0,-73.62866666666667,0.335567,34.53,2256530.0,1721467367.4125,0
10.0,63.41466666666667,0.335567,34.53,2268669.5,1721467367.6458333,0
10.0,27.947333333333333,0.335567,34.53,2271555.3333333335,1721467367.8791666,0
10.0,-62.552,0.336848,34.53,2260634.8333333335,1721467368.1125,0
10.0,-10.117999999999999,0.336848,34.53,2267225.8333333335,1721467368.3458333,0
10.0,45.26933333333333,0.33941,34.53,2279736.5,1721467368.5791667,0
10.0,-0.9628571428571426,0.33941,34.53,2266586.4,1721467368.8125,0
10.0,-75.20599999999999,0.338129,34.53,2264068.8333333335,1721467369.0458333,0
10.0,55.936,0.338129,34.53,2270646.0,1721467369.2791667,0
10.0,21.005999999999997,0.335567,34.53,2271253.1666666665,1721467369.5125,0
10.0,-76.1,,,2256186.0,1721467369.7458334,0
10.0,49.02733333333334,0.335567,34.53,2257449.2,1721467369.9791667,0
10.0,30.959333333333333,0.334286,34.53,2262086.6666666665,1721467370.2125,0
10.0,-65.58066666666667,0.333006,34.5,2241200.3333333335,1721467370.4458334,0
10.0,10.390666666666668,0.333006,34.5,2240880.5,1721467370.6791666,0
10.0,63.4,0.334286,34.5,2249248.8333333335,1721467370.9125,0
10.0,-0.2033333333333341,0.334286,34.5,2227611.8333333335,1721467371.1458333,0
10.0,-103.45666666666666,0.336848,34.53,2223498.6666666665,1721467371.3791666,0
10.0,61.507333333333335,0.338129,34.53,2230437.0,1721467371.6125,0
10.0,59.99933333333333,0.336848,34.53,2237884.0,1721467371.8458333,0
10.0,-15.616000000000001,0.335567,34.53,2214560.4,1721467372.0791667,0
10.0,-116.12571428571428,0.336848,34.53,2212093.0,1721467372.3125,0
10.0,44.82,0.334286,34.53,2221458.8333333335,1721467372.5458333,0
10.0,70.35133333333333,0.333006,34.53,2233725.8333333335,1721467372.7791667,0
10.0,11.177333333333333,0.335567,34.53,2214158.8333333335,1721467373.0125,0
10.0,-88.97666666666667,,,2214597.3333333335,1721467373.2458334,0
10.0,33.73866666666667,0.333006,34.53,2226475.8333333335,1721467373.4791667,0
10.0,58.28,0.331725,34.53,2239356.6666666665,1721467373.7125,0
10.0,3.764,0.334286,34.53,2223254.5,1721467373.9458334,0
10.0,-84.44266666666665,0.334286,34.53,2224635.0,1721467374.1791666,0
10.0,47.52133333333333,0.336848,34.53,2233032.1666666665,1721467374.4125,0
10.0,36.10733333333334,0.336848,34.53,2241887.6666666665,1721467374.6458333,0
10.0,-31.391333333333332,0.336848,34.53,2227399.0,1721467374.8791666,0
10.0,-80.24933333333333,0.335567,34.53,2230845.8333333335,1721467375.1125,0
10.0,65.91866666666667,0.335567,34.53,2243408.5,1721467375.3458333,0
10.0,41.836,0.333006,34.53,2245499.4,1721467375.5791667,0
10.0,-39.39142857142857,0.333006,34.53,2231836.1666666665,1721467375.8125,0
10.0,-81.86533333333334,0.333006,34.53,2236635.1666666665,1721467376.0458333,0
10.0,73.50399999999999,0.331725,34.53,2251030.1666666665,1721467376.2791667,0
10.0,52.833333333333336,0.331725,34.53,2249267.3333333335,1721467376.5125,0
10.0,-30.694666666666667,,,2236466.1666666665,1721467376.7458334,0
10.0,-102.45466666666668,0.331725,34.53,2242450.8333333335,1721467376.9791667,0
10.0,63.77,0.334286,34.53,2257494.6666666665,1721467377.2125,0
10.0,50.54600000000001,0.335567,34.53,2256433.6666666665,1721467377.4458334,0
10.0,-28.045333333333335,0.334286,34.53,2243555.0,1721467377.6791666,0
10.0,-75.57199999999999,0.334286,34.53,2250350.6666666665,1721467377.9125,0
10.0,68.37266666666667,0.335567,34.53,2264797.1666666665,1721467378.1458333,0
10.0,42.66733333333333,0.335567,34.55,2255235.6666666665,1721467378.3791666,0
10.0,-57.692666666666675,0.331725,34.55,2247891.8333333335,1721467378.6125,0
10.0,10.472000000000001,0.331725,34.55,2252556.6,1721467378.8458333,0
10.0,52.44133333333333,0.331725,34.55,2261886.6666666665,1721467379.0791667,0
10.0,-26.935714285714287,0.331725,34.55,2248042.0,1721467379.3125,0
10.0,-80.97399999999999,0.330444,34.55,2247280.0,1721467379.5458333,0
10.0,68.84533333333334,0.334286,34.55,2256749.1666666665,1721467379.7791667,0
10.0,30.442,0.335567,34.55,2249337.1666666665,1721467380.0125,0
10.0,-78.96266666666666,,,2235258.0,1721467380.2458334,0
10.0,-10.005333333333333,0.335567,34.53,2239710.3333333335,1721467380.4791667,0
10.0,69.95533333333333,0.334286,34.53,2247914.6666666665,1721467380.7125,0
10.0,13.154666666666666,0.334286,34.53,2222496.0,1721467380.9458334,0
10.0,-94.95,0.334286,34.53,2218443.1666666665,1721467381.1791666,0
10.0,5.956666666666666,0.336848,34.5,2228305.8333333335,1721467381.4125,0
10.0,76.42733333333332,0.331725,34.5,2233870.8333333335,1721467381.6458333,0
10.0,26.436666666666667,0.330444,34.5,2210359.0,1721467381.8791666,0
10.0,-79.38066666666667,0.334286,34.5,2209816.1666666665,1721467382.1125,0
10.0,-1.772666666666665,0.331725,34.53,2220749.3333333335,1721467382.3458333,0
10.0,67.52400000000002,0.330444,34.53,2228996.6666666665,1721467382.5791667,0
10.0,19.36357142857143,0.333006,34.53,2206796.3333333335,1721467382.8125,0
10.0,-93.27133333333335,0.333006,34.53,2205671.1666666665,1721467383.0458333,0
10.0,38.702,0.333006,34.53,2216631.6666666665,1721467383.2791667,0
10.0,55.39333333333334,0.334286,34.53,2216690.8333333335,1721467383.5125,0
10.0,-13.98066666666667,,,2200961.0,1721467383.7458334,0
10.0,-113.04866666666666,0.334286,34.53,2204649.5,1721467383.9791667,0
10.0,66.80066666666667,0.334286,34.53,2218264.3333333335,1721467384.2125,0
10.0,48.56666666666667,0.331725,34.53,2209833.3333333335,1721467384.4458334,0
10.0,-42.254666666666665,0.330444,34.53,2194206.1666666665,1721467384.6791666,0
10.0,-63.41066666666667,0.331725,34.53,2199485.3333333335,1721467384.9125,0
10.0,74.638,0.330444,34.53,2211141.4,1721467385.1458333,0
10.0,34.104,0.333006,34.53,2188888.0,1721467385.3791666,0
10.0,-84.666,0.334286,34.53,2180789.1666666665,1721467385.6125,0
10.0,15.573333333333334,0.334286,34.53,2188156.6666666665,1721467385.8458333,0
10.0,56.087333333333326,0.334286,34.53,2192508.6666666665,1721467386.0791667,0
10.0,-6.727857142857144,0.334286,34.53,2171342.3333333335,1721467386.3125,0
10.0,-69.89266666666666,0.333006,34.53,2171350.4,1721467386.5458333,0
10.0,65.82333333333334,0.330444,34.53,2181104.0,1721467386.7791667,0
10.0,21.317333333333334,0.330444,34.53,2166773.8333333335,1721467387.0125,0
10.0,-95.84666666666665,,,2161086.1666666665,1721467387.2458334,0
10.0,52.452666666666666,0.330444,34.55,2171244.0,1721467387.4791667,0
10.0,76.08866666666667,0.330444,34.55,2170474.3333333335,1721467387.7125,0
10.0,-19.884666666666664,0.331725,34.55,2152328.2,1721467387.9458334,0
10.0,-108.528,0.331725,34.55,2156774.0,1721467388.1791666,0
10.0,63.72266666666667,0.331725,34.53,2172711.8333333335,1721467388.4125,0
10.0,51.424,0.333006,34.53,2159906.3333333335,1721467388.6458333,0
10.0,-33.41466666666666,0.331725,34.53,2148692.6666666665,1721467388.8791666,0
10.0,-93.94333333333334,0.331725,34.53,2156173.8333333335,1721467389.1125,0
10.0,81.59133333333332,0.331725,34.53,2171310.4,1721467389.3458333,0
10.0,55.88533333333333,0.330444,34.53,2169223.6666666665,1721467389.5791667,0
10.0,-30.187142857142856,0.331725,34.53,2155249.5,1721467389.8125,0
10.0,-76.70666666666666,0.329163,34.53,2162862.3333333335,1721467390.0458333,0
10.0,68.24933333333334,0.331725,34.55,2179608.3333333335,1721467390.2791667,0
10.0,30.970666666666666,0.330444,34.55,2174306.1666666665,1721467390.5125,0
10.0,-61.39066666666667,,,2170810.8333333335,1721467390.7458334,0
10.0,-40.68533333333333,0.333006,34.55,2182058.1666666665,1721467390.9791667,0
10.0,67.90066666666667,0.333006,34.55,2197522.0,1721467391.2125,0
10.0,21.766000000000002,0.333006,34.5,2180102.8333333335,1721467391.4458334,0
10.0,-91.27,0.333006,34.5,2179765.8,1721467391.6791666,0
10.0,-3.9753333333333347,0.333006,34.5,2189321.0,1721467391.9125,0
10.0,64.83466666666668,0.331725,34.5,2199143.5,1721467392.1458333,0
10.0,4.664666666666667,0.329163,34.55,2170410.8333333335,1721467392.3791666,0
10.0,-70.88466666666666,0.329163,34.55,2161228.8333333335,1721467392.6125,0
10.0,67.48133333333334,0.330444,34.55,2164921.0,1721467392.8458333,0
10.0,10.233333333333333,0.330444,34.55,2159753.8333333335,1721467393.0791667,0
10.0,-100.60071428571428,0.330444,34.55,2150511.2,1721467393.3125,0
10.0,45.94333333333334,0.327882,34.55,2136292.0,1721467393.5458333,0
10.0,27.56,0.329163,34.55,2093183.1666666667,1721467393.7791667,0
10.0,-88.05133333333333,0.333006,34.55,2064830.6666666667,1721467394.0125,0
10.0,-3.1400000000000015,,,2067464.1666666667,1721467394.2458334,0
10.0,63.169999999999995,0.333006,34.53,2078785.6,1721467394.4791667,0
10.0,-20.45133333333333,0.333006,34.53,2036492.857142857,1721467394.7125,0
10.0,-70.824,0.331725,34.53,2024756.3333333333,1721467394.9458334,0
10.0,92.778,0.331725,34.53,2014799.8,1721467395.1791666,0
