ID,empatica_bvp,empatica_eda,empatica_temp,samsung_bvp,time,CL
5.0,-11.75,0.040993,32.39,,1660301143.253125,1
5.0,-17.84333333333333,,,,1660301143.303125,1
5.0,-20.566666666666666,,,,1660301143.353125,1
5.0,-30.933333333333334,,,,1660301143.403125,1
5.0,-43.23,,,,1660301143.453125,1
5.0,-60.8025,0.044836,32.39,,1660301143.503125,1
5.0,-91.72666666666667,,,,1660301143.553125,1
5.0,-134.73333333333332,,,,1660301143.603125,1
5.0,-182.64,,,,1660301143.653125,1
5.0,-225.7733333333333,,,,1660301143.703125,1
5.0,-293.7075,0.044836,32.39,,1660301143.753125,1
5.0,-394.52,,,,1660301143.803125,1
5.0,-445.3433333333333,,,,1660301143.853125,1
5.0,-400.65000000000003,,,,1660301143.903125,1
5.0,-329.29,,,,1660301143.953125,1
5.0,-273.71250000000003,0.043555,32.39,,1660301144.003125,1
5.0,-235.39000000000001,,,,1660301144.053125,1
5.0,-192.85,,,,1660301144.103125,1
5.0,-144.0,,,,1660301144.153125,1
5.0,-87.82,,,,1660301144.203125,1
5.0,11.219999999999999,0.042274,32.41,,1660301144.253125,1
5.0,110.43666666666667,,,,1660301144.303125,1
5.0,210.17999999999998,,,,1660301144.353125,1
5.0,320.4633333333333,,,,1660301144.403125,1
5.0,394.7,,,,1660301144.453125,1
5.0,497.52750000000003,0.042274,32.41,,1660301144.503125,1
5.0,641.7633333333333,,,,1660301144.553125,1
5.0,601.5566666666667,,,,1660301144.603125,1
5.0,364.21999999999997,,,,1660301144.653125,1
5.0,196.43999999999997,,,,1660301144.703125,1
5.0,111.8625,0.042274,32.41,,1660301144.753125,1
5.0,18.643333333333334,,,,1660301144.803125,1
5.0,-67.76666666666667,,,,1660301144.853125,1
5.0,-117.14666666666666,,,,1660301144.903125,1
5.0,-88.46666666666668,,,,1660301144.953125,1
5.0,-37.652499999999996,0.046117,32.41,,1660301145.003125,1
5.0,35.303333333333335,,,,1660301145.053125,1
5.0,140.97,,,,1660301145.103125,1
5.0,194.08666666666667,,,,1660301145.153125,1
5.0,163.49333333333334,,,,1660301145.203125,1
5.0,119.8025,0.046117,32.31,,1660301145.253125,1
5.0,90.94,,,,1660301145.303125,1
5.0,63.923333333333325,,,,1660301145.353125,1
5.0,41.28666666666667,,,,1660301145.403125,1
5.0,35.4,,,,1660301145.453125,1
5.0,30.5625,0.046117,32.31,,1660301145.503125,1
5.0,19.033333333333335,,,,1660301145.553125,1
5.0,11.04,,,,1660301145.603125,1
5.0,5.81,,,,1660301145.653125,1
5.0,0.5566666666666665,,,,1660301145.703125,1
5.0,-5.675,0.044836,32.31,,1660301145.753125,1
5.0,-5.626666666666666,,,,1660301145.803125,1
5.0,-3.0733333333333337,,,,1660301145.853125,1
5.0,-7.25,,,,1660301145.903125,1
5.0,-10.016666666666666,,,,1660301145.953125,1
5.0,-8.120000000000001,0.044836,32.31,,1660301146.003125,1
5.0,-18.713333333333335,,,,1660301146.053125,1
5.0,-29.643333333333334,,,,1660301146.103125,1
5.0,-26.05666666666667,,,,1660301146.153125,1
5.0,-12.81,,,,1660301146.203125,1
5.0,-7.3175,0.042274,32.33,,1660301146.253125,1
5.0,-5.8933333333333335,,,,1660301146.303125,1
5.0,-4.42,,,,1660301146.353125,1
5.0,-1.373333333333333,,,,1660301146.403125,1
5.0,-3.24,,,,1660301146.453125,1
5.0,-9.6375,0.044836,32.33,,1660301146.503125,1
5.0,-13.263333333333334,,,,1660301146.553125,1
5.0,-21.76,,,,1660301146.603125,1
5.0,-31.843333333333334,,,,1660301146.653125,1
5.0,-44.96,,,,1660301146.703125,1
5.0,-65.51,0.046117,32.33,,1660301146.753125,1
5.0,-90.24333333333334,,,,1660301146.803125,1
5.0,-111.56666666666666,,,,1660301146.853125,1
5.0,-124.14,,,,1660301146.903125,1
5.0,-134.54,,,,1660301146.953125,1
5.0,-143.9675,0.048679,32.33,,1660301147.003125,1
5.0,-119.65333333333335,,,,1660301147.053125,1
5.0,-45.446666666666665,,,,1660301147.103125,1
5.0,51.90333333333333,,,,1660301147.153125,1
5.0,158.18333333333337,,,,1660301147.203125,1
5.0,276.60499999999996,0.051241,32.33,,1660301147.253125,1
5.0,286.99,,,,1660301147.303125,1
5.0,215.67666666666665,,,,1660301147.353125,1
5.0,146.9333333333333,,,,1660301147.403125,1
5.0,79.75333333333334,,,,1660301147.453125,1
5.0,17.52,0.04996,32.33,,1660301147.503125,1
5.0,-21.483333333333334,,,,1660301147.553125,1
5.0,-19.953333333333333,,,,1660301147.603125,1
5.0,-6.340000000000001,,,,1660301147.653125,1
5.0,-4.37,,,,1660301147.703125,1
5.0,4.75,0.051241,32.33,,1660301147.753125,1
5.0,6.546666666666667,,,,1660301147.803125,1
5.0,-10.54,,,,1660301147.853125,1
5.0,-10.899999999999999,,,,1660301147.903125,1
5.0,0.9066666666666667,,,,1660301147.953125,1
5.0,-1.34,0.04996,32.33,,1660301148.003125,1
5.0,-11.426666666666668,,,,1660301148.053125,1
5.0,-14.33,,,,1660301148.103125,1
5.0,-12.299999999999999,,,,1660301148.153125,1
5.0,-18.323333333333334,,,,1660301148.203125,1
5.0,-18.59,0.048679,32.33,,1660301148.253125,1
5.0,-4.706666666666667,,,,1660301148.303125,1
5.0,5.736666666666667,,,,1660301148.353125,1
5.0,15.646666666666667,,,,1660301148.403125,1
5.0,21.74666666666667,,,,1660301148.453125,1
5.0,20.565,0.047398,32.33,,1660301148.503125,1
5.0,14.5,,,,1660301148.553125,1
5.0,13.276666666666666,,,,1660301148.603125,1
5.0,13.096666666666666,,,,1660301148.653125,1
5.0,4.406666666666666,,,,1660301148.703125,1
5.0,-10.77,0.048679,32.33,,1660301148.753125,1
5.0,-17.403333333333332,,,,1660301148.803125,1
5.0,-15.049999999999999,,,,1660301148.853125,1
5.0,-15.586666666666668,,,,1660301148.903125,1
5.0,-19.33666666666667,,,,1660301148.953125,1
5.0,-19.95,0.051241,32.33,,1660301149.003125,1
5.0,-8.256666666666666,,,,1660301149.053125,1
5.0,1.1666666666666667,,,,1660301149.103125,1
5.0,3.0700000000000003,,,,1660301149.153125,1
5.0,1.4633333333333332,,,,1660301149.203125,1
5.0,-1.8199999999999998,0.051241,32.34,,1660301149.253125,1
5.0,-3.186666666666666,,,,1660301149.303125,1
5.0,-2.9166666666666665,,,,1660301149.353125,1
5.0,-0.03000000000000001,,,,1660301149.403125,1
5.0,-2.183333333333333,,,,1660301149.453125,1
5.0,-7.2475000000000005,0.051241,32.34,,1660301149.503125,1
5.0,-10.146666666666667,,,,1660301149.553125,1
5.0,-16.05666666666667,,,,1660301149.603125,1
5.0,-21.286666666666665,,,,1660301149.653125,1
5.0,-30.383333333333336,,,,1660301149.703125,1
5.0,-44.38,0.051241,32.34,,1660301149.753125,1
5.0,-48.71,,,,1660301149.803125,1
5.0,-57.583333333333336,,,,1660301149.853125,1
5.0,-80.83,,,,1660301149.903125,1
5.0,-107.62666666666667,,,,1660301149.953125,1
5.0,-79.445,0.04996,32.34,,1660301150.003125,1
5.0,17.209999999999997,,,,1660301150.053125,1
5.0,102.35666666666667,,,,1660301150.103125,1
5.0,163.22666666666666,,,,1660301150.153125,1
5.0,183.98333333333335,,,,1660301150.203125,1
5.0,159.48000000000002,0.047398,32.34,,1660301150.253125,1
5.0,102.46333333333332,,,,1660301150.303125,1
5.0,59.88333333333335,,,,1660301150.353125,1
5.0,38.09,,,,1660301150.403125,1
5.0,19.656666666666666,,,,1660301150.453125,1
5.0,-9.0125,0.048679,32.34,,1660301150.503125,1
5.0,-30.179999999999996,,,,1660301150.553125,1
5.0,-28.373333333333335,,,,1660301150.603125,1
5.0,-18.896666666666665,,,,1660301150.653125,1
5.0,-10.883333333333333,,,,1660301150.703125,1
5.0,-0.54,0.048679,32.34,,1660301150.753125,1
5.0,-0.5299999999999999,,,,1660301150.803125,1
5.0,-0.8233333333333334,,,,1660301150.853125,1
5.0,-0.08333333333333333,,,,1660301150.903125,1
5.0,-5.596666666666667,,,,1660301150.953125,1
5.0,-3.6325000000000003,0.051241,32.34,,1660301151.003125,1
5.0,-10.526666666666666,,,,1660301151.053125,1
5.0,-23.929999999999996,,,,1660301151.103125,1
5.0,-17.996666666666666,,,,1660301151.153125,1
5.0,-7.68,,,,1660301151.203125,1
5.0,-6.545,0.051241,32.34,,1660301151.253125,1
5.0,-5.5566666666666675,,,,1660301151.303125,1
5.0,-7.863333333333333,,,,1660301151.353125,1
5.0,-15.556666666666667,,,,1660301151.403125,1
5.0,-21.496666666666666,,,,1660301151.453125,1
5.0,-28.61,0.051241,32.34,,1660301151.503125,1
5.0,-40.086666666666666,,,,1660301151.553125,1
5.0,-56.423333333333325,,,,1660301151.603125,1
5.0,-76.49666666666667,,,,1660301151.653125,1
5.0,-100.92666666666666,,,,1660301151.703125,1
5.0,-129.7725,0.048679,32.34,,1660301151.753125,1
5.0,-156.34333333333333,,,,1660301151.803125,1
5.0,-177.04999999999998,,,,1660301151.853125,1
5.0,-196.43666666666664,,,,1660301151.903125,1
5.0,-224.30666666666664,,,,1660301151.953125,1
5.0,-261.035,0.04996,32.34,,1660301152.003125,1
5.0,-237.80999999999997,,,,1660301152.053125,1
5.0,-129.16333333333333,,,,1660301152.103125,1
5.0,-11.770000000000001,,,,1660301152.153125,1
5.0,47.30666666666667,,,,1660301152.203125,1
5.0,47.260000000000005,0.048679,32.34,,1660301152.253125,1
5.0,44.03,,,,1660301152.303125,1
5.0,44.73666666666667,,,,1660301152.353125,1
5.0,46.98666666666667,,,,1660301152.403125,1
5.0,73.46,,,,1660301152.453125,1
5.0,115.495,0.048679,32.34,,1660301152.503125,1
5.0,143.54333333333332,,,,1660301152.553125,1
5.0,165.25333333333333,,,,1660301152.603125,1
5.0,187.59666666666666,,,,1660301152.653125,1
5.0,200.0233333333333,,,,1660301152.703125,1
5.0,210.88,0.048679,32.34,,1660301152.753125,1
5.0,195.79333333333332,,,,1660301152.803125,1
5.0,162.25666666666666,,,,1660301152.853125,1
5.0,109.04333333333334,,,,1660301152.903125,1
5.0,58.083333333333336,,,,1660301152.953125,1
5.0,43.93,0.051241,32.34,,1660301153.003125,1
5.0,53.25666666666667,,,,1660301153.053125,1
5.0,36.76,,,,1660301153.103125,1
5.0,-7.96,,,,1660301153.153125,1
5.0,-29.560000000000002,,,,1660301153.203125,1
5.0,-22.284999999999997,0.052522,32.34,,1660301153.253125,1
5.0,-29.236666666666668,,,,1660301153.303125,1
5.0,-34.93666666666667,,,,1660301153.353125,1
5.0,-35.163333333333334,,,,1660301153.403125,1
5.0,-42.95666666666667,,,,1660301153.453125,1
5.0,-54.272499999999994,0.052522,32.34,,1660301153.503125,1
5.0,-39.72333333333333,,,,1660301153.553125,1
5.0,-8.44,,,,1660301153.603125,1
5.0,22.406666666666666,,,,1660301153.653125,1
5.0,41.65,,,,1660301153.703125,1
5.0,41.7225,0.051241,32.34,,1660301153.753125,1
5.0,29.456666666666667,,,,1660301153.803125,1
5.0,26.03,,,,1660301153.853125,1
5.0,37.199999999999996,,,,1660301153.903125,1
5.0,61.81666666666666,,,,1660301153.953125,1
5.0,110.465,0.048679,32.34,,1660301154.003125,1
5.0,163.72,,,,1660301154.053125,1
5.0,156.4333333333333,,,,1660301154.103125,1
5.0,92.44666666666667,,,,1660301154.153125,1
5.0,41.43,,,,1660301154.203125,1
5.0,32.3825,0.046117,32.37,,1660301154.253125,1
5.0,31.39333333333333,,,,1660301154.303125,1
5.0,22.66333333333333,,,,1660301154.353125,1
5.0,14.476666666666667,,,,1660301154.403125,1
5.0,2.5899999999999994,,,,1660301154.453125,1
5.0,-30.325,0.048679,32.37,,1660301154.503125,1
5.0,-58.31333333333333,,,,1660301154.553125,1
5.0,-63.660000000000004,,,,1660301154.603125,1
5.0,-63.71333333333333,,,,1660301154.653125,1
5.0,-64.97,,,,1660301154.703125,1
5.0,-57.7975,0.051241,32.37,,1660301154.753125,1
5.0,-51.17666666666667,,,,1660301154.803125,1
5.0,-50.050000000000004,,,,1660301154.853125,1
5.0,-47.69,,,,1660301154.903125,1
5.0,-44.373333333333335,,,,1660301154.953125,1
5.0,-29.865,0.052522,32.37,,1660301155.003125,1
5.0,-7.223333333333333,,,,1660301155.053125,1
5.0,2.1333333333333333,,,,1660301155.103125,1
5.0,-0.4966666666666666,,,,1660301155.153125,1
5.0,-11.806666666666667,,,,1660301155.203125,1
5.0,-30.697499999999998,0.052522,32.34,,1660301155.253125,1
5.0,-40.919999999999995,,,,1660301155.303125,1
5.0,-36.42666666666667,,,,1660301155.353125,1
5.0,-28.156666666666666,,,,1660301155.403125,1
5.0,-21.386666666666667,,,,1660301155.453125,1
5.0,-6.095,0.051241,32.34,,1660301155.503125,1
5.0,10.316666666666666,,,,1660301155.553125,1
5.0,18.26,,,,1660301155.603125,1
5.0,19.76,,,,1660301155.653125,1
5.0,16.976666666666667,,,,1660301155.703125,1
5.0,14.0,0.04996,32.34,,1660301155.753125,1
5.0,8.706666666666665,,,,1660301155.803125,1
5.0,2.2966666666666664,,,,1660301155.853125,1
5.0,-9.773333333333333,,,,1660301155.903125,1
5.0,-24.646666666666665,,,,1660301155.953125,1
5.0,-29.4375,0.047398,32.34,,1660301156.003125,1
5.0,-21.429999999999996,,,,1660301156.053125,1
5.0,-15.856666666666664,,,,1660301156.103125,1
5.0,-13.023333333333333,,,,1660301156.153125,1
5.0,-10.05,,,,1660301156.203125,1
5.0,-5.435,0.047398,32.33,,1660301156.253125,1
5.0,-2.43,,,,1660301156.303125,1
5.0,-0.69,,,,1660301156.353125,1
5.0,4.343333333333334,,,,1660301156.403125,1
5.0,6.8133333333333335,,,,1660301156.453125,1
5.0,3.545,0.047398,32.33,,1660301156.503125,1
5.0,1.8666666666666665,,,,1660301156.553125,1
5.0,-3.81,,,,1660301156.603125,1
5.0,-13.466666666666667,,,,1660301156.653125,1
5.0,-18.38,,,,1660301156.703125,1
5.0,-9.86,0.04996,32.33,,1660301156.753125,1
5.0,1.6900000000000002,,,,1660301156.803125,1
5.0,11.366666666666667,,,,1660301156.853125,1
5.0,23.346666666666664,,,,1660301156.903125,1
5.0,26.536666666666665,,,,1660301156.953125,1
5.0,19.5525,0.051241,32.33,,1660301157.003125,1
5.0,10.1,,,,1660301157.053125,1
5.0,3.536666666666667,,,,1660301157.103125,1
5.0,-2.0933333333333333,,,,1660301157.153125,1
5.0,-13.483333333333334,,,,1660301157.203125,1
5.0,-21.152500000000003,0.04996,32.31,,1660301157.253125,1
5.0,-16.786666666666665,,,,1660301157.303125,1
5.0,-18.733333333333334,,,,1660301157.353125,1
5.0,-22.066666666666666,,,,1660301157.403125,1
5.0,-23.28,,,,1660301157.453125,1
5.0,-28.04,0.04996,32.31,,1660301157.503125,1
5.0,-16.44333333333333,,,,1660301157.553125,1
5.0,38.1,,,,1660301157.603125,1
5.0,96.33666666666666,,,,1660301157.653125,1
5.0,105.52,,,,1660301157.703125,1
5.0,93.505,0.047398,32.31,,1660301157.753125,1
5.0,79.07333333333334,,,,1660301157.803125,1
5.0,72.17,,,,1660301157.853125,1
5.0,62.07666666666666,,,,1660301157.903125,1
5.0,29.046666666666667,,,,1660301157.953125,1
5.0,-8.715,0.047398,32.31,,1660301158.003125,1
5.0,-45.75666666666666,,,,1660301158.053125,1
5.0,-69.42,,,,1660301158.103125,1
5.0,-68.29,,,,1660301158.153125,1
5.0,-57.04333333333333,,,,1660301158.203125,1
5.0,-39.542500000000004,0.046117,32.37,,1660301158.253125,1
5.0,-25.72666666666667,,,,1660301158.303125,1
5.0,-22.463333333333328,,,,1660301158.353125,1
5.0,-19.276666666666667,,,,1660301158.403125,1
5.0,-16.976666666666667,,,,1660301158.453125,1
5.0,-15.065,0.04996,32.37,,1660301158.503125,1
5.0,-12.920000000000002,,,,1660301158.553125,1
5.0,-15.323333333333332,,,,1660301158.603125,1
5.0,-18.516666666666666,,,,1660301158.653125,1
5.0,-20.55,,,,1660301158.703125,1
5.0,-23.35,0.048679,32.37,,1660301158.753125,1
5.0,-22.62,,,,1660301158.803125,1
5.0,-15.036666666666667,,,,1660301158.853125,1
5.0,-5.34,,,,1660301158.903125,1
5.0,2.4033333333333333,,,,1660301158.953125,1
5.0,6.6625,0.04996,32.37,,1660301159.003125,1
5.0,8.886666666666665,,,,1660301159.053125,1
5.0,11.143333333333333,,,,1660301159.103125,1
5.0,9.143333333333333,,,,1660301159.153125,1
5.0,5.123333333333333,,,,1660301159.203125,1
5.0,1.3375,0.048679,32.33,,1660301159.253125,1
5.0,-3.8200000000000003,,,,1660301159.303125,1
5.0,-9.053333333333333,,,,1660301159.353125,1
5.0,-16.78333333333333,,,,1660301159.403125,1
5.0,-24.900000000000002,,,,1660301159.453125,1
5.0,-23.8575,0.047398,32.33,,1660301159.503125,1
5.0,-14.36,,,,1660301159.553125,1
5.0,-7.833333333333335,,,,1660301159.603125,1
5.0,-3.3866666666666667,,,,1660301159.653125,1
5.0,1.5,,,,1660301159.703125,1
5.0,4.135000000000001,0.04996,32.33,,1660301159.753125,1
5.0,3.1566666666666667,,,,1660301159.803125,1
5.0,3.776666666666667,,,,1660301159.853125,1
5.0,3.3466666666666662,,,,1660301159.903125,1
5.0,-3.606666666666667,,,,1660301159.953125,1
5.0,-13.0725,0.047398,32.33,,1660301160.003125,1
5.0,-16.97,,,,1660301160.053125,1
5.0,-21.50666666666667,,,,1660301160.103125,1
5.0,-24.970000000000002,,,,1660301160.153125,1
5.0,-16.873333333333335,,,,1660301160.203125,1
5.0,-3.0175,0.052522,32.33,,1660301160.253125,1
5.0,7.116666666666667,,,,1660301160.303125,1
5.0,14.646666666666667,,,,1660301160.353125,1
5.0,18.816666666666666,,,,1660301160.403125,1
5.0,20.27,,,,1660301160.453125,1
5.0,18.9775,0.051241,32.33,,1660301160.503125,1
5.0,15.85,,,,1660301160.553125,1
5.0,10.636666666666668,,,,1660301160.603125,1
5.0,1.78,,,,1660301160.653125,1
5.0,-5.813333333333333,,,,1660301160.703125,1
5.0,-13.555,0.04996,32.33,,1660301160.753125,1
5.0,-24.430000000000003,,,,1660301160.803125,1
5.0,-28.75333333333333,,,,1660301160.853125,1
5.0,-22.026666666666667,,,,1660301160.903125,1
5.0,-11.170000000000002,,,,1660301160.953125,1
5.0,-0.7525000000000001,0.051241,32.33,,1660301161.003125,1
5.0,5.493333333333333,,,,1660301161.053125,1
5.0,6.9433333333333325,,,,1660301161.103125,1
5.0,7.866666666666667,,,,1660301161.153125,1
5.0,7.513333333333333,,,,1660301161.203125,1
5.0,5.76,0.04996,32.33,,1660301161.253125,1
5.0,-0.39000000000000007,,,,1660301161.303125,1
5.0,-5.12,,,,1660301161.353125,1
5.0,-4.45,,,,1660301161.403125,1
5.0,-4.25,,,,1660301161.453125,1
5.0,-10.545,0.048679,32.33,,1660301161.503125,1
5.0,-16.973333333333333,,,,1660301161.553125,1
5.0,-11.086666666666668,,,,1660301161.603125,1
5.0,-0.8633333333333333,,,,1660301161.653125,1
5.0,5.083333333333333,,,,1660301161.703125,1
5.0,9.985,0.048679,32.33,,1660301161.753125,1
5.0,10.829999999999998,,,,1660301161.803125,1
5.0,7.373333333333334,,,,1660301161.853125,1
5.0,4.586666666666667,,,,1660301161.903125,1
5.0,2.27,,,,1660301161.953125,1
5.0,-0.04999999999999999,0.04996,32.33,,1660301162.003125,1
5.0,-3.1966666666666668,,,,1660301162.053125,1
5.0,-8.623333333333333,,,,1660301162.103125,1
5.0,-12.796666666666667,,,,1660301162.153125,1
5.0,-19.433333333333334,,,,1660301162.203125,1
5.0,-28.982499999999998,0.052522,32.31,,1660301162.253125,1
5.0,-29.753333333333334,,,,1660301162.303125,1
5.0,-20.603333333333335,,,,1660301162.353125,1
5.0,-10.176666666666668,,,,1660301162.403125,1
5.0,-4.916666666666667,,,,1660301162.453125,1
5.0,-3.4974999999999996,0.04996,32.31,,1660301162.503125,1
5.0,1.95,,,,1660301162.553125,1
5.0,2.58,,,,1660301162.603125,1
5.0,-9.193333333333333,,,,1660301162.653125,1
5.0,-20.673333333333336,,,,1660301162.703125,1
5.0,-31.4025,0.053803,32.31,,1660301162.753125,1
5.0,-51.07666666666666,,,,1660301162.803125,1
5.0,-67.30666666666667,,,,1660301162.853125,1
5.0,-83.73,,,,1660301162.903125,1
5.0,-116.81,,,,1660301162.953125,1
5.0,-114.835,0.053803,32.31,,1660301163.003125,1
5.0,-41.21666666666666,,,,1660301163.053125,1
5.0,17.346666666666668,,,,1660301163.103125,1
5.0,43.776666666666664,,,,1660301163.153125,1
5.0,54.88999999999999,,,,1660301163.203125,1
5.0,65.3025,0.051241,32.29,,1660301163.253125,1
5.0,49.366666666666674,,,,1660301163.303125,1
5.0,26.463333333333335,,,,1660301163.353125,1
5.0,24.76,,,,1660301163.403125,1
5.0,43.51666666666667,,,,1660301163.453125,1
5.0,56.309999999999995,0.051241,32.29,,1660301163.503125,1
5.0,65.41333333333334,,,,1660301163.553125,1
5.0,77.91333333333334,,,,1660301163.603125,1
5.0,70.98333333333333,,,,1660301163.653125,1
5.0,53.050000000000004,,,,1660301163.703125,1
5.0,43.2225,0.051241,32.29,,1660301163.753125,1
5.0,43.52,,,,1660301163.803125,1
5.0,42.150000000000006,,,,1660301163.853125,1
5.0,31.666666666666668,,,,1660301163.903125,1
5.0,16.976666666666667,,,,1660301163.953125,1
5.0,0.5725,0.053803,32.29,,1660301164.003125,1
5.0,-20.586666666666666,,,,1660301164.053125,1
5.0,-38.330000000000005,,,,1660301164.103125,1
5.0,-48.196666666666665,,,,1660301164.153125,1
5.0,-51.49666666666667,,,,1660301164.203125,1
5.0,-48.7825,0.053803,32.31,,1660301164.253125,1
5.0,-30.44,,,,1660301164.303125,1
5.0,-2.063333333333333,,,,1660301164.353125,1
5.0,15.736666666666665,,,,1660301164.403125,1
5.0,14.56,,,,1660301164.453125,1
5.0,10.0375,0.055084,32.31,,1660301164.503125,1
5.0,10.04,,,,1660301164.553125,1
5.0,9.646666666666667,,,,1660301164.603125,1
5.0,11.646666666666667,,,,1660301164.653125,1
5.0,15.520000000000001,,,,1660301164.703125,1
5.0,12.965,0.055084,32.31,,1660301164.753125,1
5.0,2.3699999999999997,,,,1660301164.803125,1
5.0,-9.41,,,,1660301164.853125,1
5.0,-20.473333333333333,,,,1660301164.903125,1
5.0,-30.340000000000003,,,,1660301164.953125,1
5.0,-33.5925,0.053803,32.31,,1660301165.003125,1
5.0,-31.81,,,,1660301165.053125,1
5.0,-28.650000000000002,,,,1660301165.103125,1
5.0,-19.99,,,,1660301165.153125,1
5.0,-7.930000000000001,,,,1660301165.203125,1
5.0,3.9325,0.052522,32.31,,1660301165.253125,1
5.0,14.213333333333333,,,,1660301165.303125,1
5.0,24.256666666666664,,,,1660301165.353125,1
5.0,30.72666666666667,,,,1660301165.403125,1
5.0,30.47,,,,1660301165.453125,1
5.0,22.4975,0.052522,32.31,,1660301165.503125,1
5.0,10.263333333333334,,,,1660301165.553125,1
5.0,6.736666666666667,,,,1660301165.603125,1
5.0,10.086666666666666,,,,1660301165.653125,1
5.0,9.63,,,,1660301165.703125,1
5.0,4.915,0.052522,32.31,,1660301165.753125,1
5.0,-3.02,,,,1660301165.803125,1
5.0,-11.813333333333333,,,,1660301165.853125,1
5.0,-19.849999999999998,,,,1660301165.903125,1
5.0,-27.05333333333333,,,,1660301165.953125,1
5.0,-27.24,0.052522,32.31,,1660301166.003125,1
5.0,-18.66333333333333,,,,1660301166.053125,1
5.0,-1.3200000000000003,,,,1660301166.103125,1
5.0,17.836666666666666,,,,1660301166.153125,1
5.0,29.7,,,,1660301166.203125,1
5.0,40.9375,0.057646,32.31,,1660301166.253125,1
5.0,52.65,,,,1660301166.303125,1
5.0,50.419999999999995,,,,1660301166.353125,1
5.0,28.47666666666667,,,,1660301166.403125,1
5.0,11.946666666666665,,,,1660301166.453125,1
5.0,-1.0499999999999998,0.056365,32.31,,1660301166.503125,1
5.0,-15.243333333333332,,,,1660301166.553125,1
5.0,0.010000000000000378,,,,1660301166.603125,1
5.0,20.81,,,,1660301166.653125,1
5.0,29.19,,,,1660301166.703125,1
5.0,24.2075,0.056365,32.31,,1660301166.753125,1
5.0,7.733333333333332,,,,1660301166.803125,1
5.0,-5.046666666666667,,,,1660301166.853125,1
5.0,-15.753333333333336,,,,1660301166.903125,1
5.0,-21.846666666666664,,,,1660301166.953125,1
5.0,-21.572499999999998,0.056365,32.31,,1660301167.003125,1
5.0,-17.063333333333336,,,,1660301167.053125,1
5.0,-8.723333333333333,,,,1660301167.103125,1
5.0,-1.1500000000000001,,,,1660301167.153125,1
5.0,1.656666666666667,,,,1660301167.203125,1
5.0,3.1125,0.053803,32.29,,1660301167.253125,1
5.0,-2.1066666666666665,,,,1660301167.303125,1
5.0,-7.613333333333333,,,,1660301167.353125,1
5.0,-11.313333333333333,,,,1660301167.403125,1
5.0,-16.233333333333334,,,,1660301167.453125,1
5.0,-18.495,0.053803,32.29,,1660301167.503125,1
5.0,-14.106666666666664,,,,1660301167.553125,1
5.0,-9.526666666666666,,,,1660301167.603125,1
5.0,-8.436666666666667,,,,1660301167.653125,1
5.0,-8.973333333333334,,,,1660301167.703125,1
5.0,-10.46,0.055084,32.29,,1660301167.753125,1
5.0,-10.236666666666666,,,,1660301167.803125,1
5.0,-9.586666666666666,,,,1660301167.853125,1
5.0,-11.843333333333334,,,,1660301167.903125,1
5.0,-14.476666666666667,,,,1660301167.953125,1
5.0,-15.8525,0.057646,32.29,,1660301168.003125,1
5.0,-17.08,,,,1660301168.053125,1
5.0,-19.16,,,,1660301168.103125,1
5.0,-18.919999999999998,,,,1660301168.153125,1
5.0,-17.623333333333335,,,,1660301168.203125,1
5.0,-19.259999999999998,0.053803,32.33,,1660301168.253125,1
5.0,-16.746666666666666,,,,1660301168.303125,1
5.0,-11.61,,,,1660301168.353125,1
5.0,-6.590000000000001,,,,1660301168.403125,1
5.0,-1.6499999999999997,,,,1660301168.453125,1
5.0,0.7949999999999999,0.058927,32.33,,1660301168.503125,1
5.0,0.10000000000000002,,,,1660301168.553125,1
5.0,-3.4,,,,1660301168.603125,1
5.0,-8.403333333333334,,,,1660301168.653125,1
5.0,-9.816666666666666,,,,1660301168.703125,1
5.0,3.7325,0.057646,32.33,,1660301168.753125,1
5.0,25.28333333333333,,,,1660301168.803125,1
5.0,37.10333333333333,,,,1660301168.853125,1
5.0,44.78,,,,1660301168.903125,1
5.0,48.31666666666666,,,,1660301168.953125,1
5.0,39.8975,0.056365,32.33,,1660301169.003125,1
5.0,25.22,,,,1660301169.053125,1
5.0,20.30666666666667,,,,1660301169.103125,1
5.0,13.836666666666666,,,,1660301169.153125,1
5.0,2.926666666666667,,,,1660301169.203125,1
5.0,1.24,0.055084,32.29,,1660301169.253125,1
5.0,2.233333333333333,,,,1660301169.303125,1
5.0,-5.423333333333333,,,,1660301169.353125,1
5.0,-15.486666666666666,,,,1660301169.403125,1
5.0,-19.966666666666665,,,,1660301169.453125,1
5.0,-18.275,0.055084,32.29,,1660301169.503125,1
5.0,-13.723333333333334,,,,1660301169.553125,1
5.0,-7.936666666666667,,,,1660301169.603125,1
5.0,-3.3166666666666664,,,,1660301169.653125,1
5.0,-4.036666666666666,,,,1660301169.703125,1
5.0,-7.785,0.057646,32.29,,1660301169.753125,1
5.0,-10.043333333333333,,,,1660301169.803125,1
5.0,-11.093333333333334,,,,1660301169.853125,1
5.0,-12.63,,,,1660301169.903125,1
5.0,-12.123333333333333,,,,1660301169.953125,1
5.0,-5.8100000000000005,0.058927,32.29,,1660301170.003125,1
5.0,-1.6266666666666667,,,,1660301170.053125,1
5.0,1.3699999999999999,,,,1660301170.103125,1
5.0,1.6900000000000002,,,,1660301170.153125,1
5.0,-0.24666666666666667,,,,1660301170.203125,1
5.0,-0.55,0.058927,32.29,,1660301170.253125,1
5.0,-0.44999999999999996,,,,1660301170.303125,1
5.0,-1.36,,,,1660301170.353125,1
5.0,-4.663333333333334,,,,1660301170.403125,1
5.0,-8.933333333333332,,,,1660301170.453125,1
5.0,-15.7075,0.057646,32.29,,1660301170.503125,1
5.0,-18.076666666666668,,,,1660301170.553125,1
5.0,-13.463333333333333,,,,1660301170.603125,1
5.0,-10.606666666666667,,,,1660301170.653125,1
5.0,-12.06,,,,1660301170.703125,1
5.0,-12.8675,0.056365,32.29,,1660301170.753125,1
5.0,-11.57,,,,1660301170.803125,1
5.0,-9.540000000000001,,,,1660301170.853125,1
5.0,-10.93,,,,1660301170.903125,1
5.0,-15.556666666666667,,,,1660301170.953125,1
5.0,-19.087500000000002,0.056365,32.29,,1660301171.003125,1
5.0,-18.903333333333332,,,,1660301171.053125,1
5.0,-18.953333333333333,,,,1660301171.103125,1
5.0,-18.616666666666667,,,,1660301171.153125,1
5.0,-14.196666666666667,,,,1660301171.203125,1
5.0,-12.35,0.056365,32.31,,1660301171.253125,1
5.0,-13.993333333333332,,,,1660301171.303125,1
5.0,-12.523333333333333,,,,1660301171.353125,1
5.0,-9.446666666666667,,,,1660301171.403125,1
5.0,-8.023333333333333,,,,1660301171.453125,1
5.0,13.155000000000001,0.055084,32.31,,1660301171.503125,1
5.0,52.20666666666667,,,,1660301171.553125,1
5.0,70.46333333333334,,,,1660301171.603125,1
5.0,69.39,,,,1660301171.653125,1
5.0,65.41333333333334,,,,1660301171.703125,1
5.0,60.5325,0.058927,32.31,,1660301171.753125,1
5.0,42.626666666666665,,,,1660301171.803125,1
5.0,18.133333333333333,,,,1660301171.853125,1
5.0,-6.983333333333334,,,,1660301171.903125,1
5.0,-25.0,,,,1660301171.953125,1
5.0,-32.682500000000005,0.057646,32.31,,1660301172.003125,1
5.0,-30.116666666666664,,,,1660301172.053125,1
5.0,-26.416666666666668,,,,1660301172.103125,1
5.0,-21.450000000000003,,,,1660301172.153125,1
5.0,-16.906666666666666,,,,1660301172.203125,1
5.0,-17.155,0.058927,32.31,,1660301172.253125,1
5.0,-17.47,,,,1660301172.303125,1
5.0,-12.01,,,,1660301172.353125,1
5.0,-4.22,,,,1660301172.403125,1
5.0,-1.0933333333333335,,,,1660301172.453125,1
5.0,-0.1275,0.058927,32.31,,1660301172.503125,1
5.0,0.71,,,,1660301172.553125,1
5.0,0.6733333333333333,,,,1660301172.603125,1
5.0,-1.2533333333333332,,,,1660301172.653125,1
5.0,-3.2166666666666663,,,,1660301172.703125,1
5.0,-5.8125,0.056365,32.31,,1660301172.753125,1
5.0,-8.92,,,,1660301172.803125,1
5.0,-13.073333333333332,,,,1660301172.853125,1
5.0,-12.803333333333333,,,,1660301172.903125,1
5.0,-7.7633333333333345,,,,1660301172.953125,1
5.0,-5.4625,0.056365,32.31,,1660301173.003125,1
5.0,-4.223333333333334,,,,1660301173.053125,1
5.0,-3.28,,,,1660301173.103125,1
5.0,-2.316666666666667,,,,1660301173.153125,1
5.0,0.63,,,,1660301173.203125,1
5.0,4.327500000000001,0.056365,32.29,,1660301173.253125,1
5.0,6.093333333333333,,,,1660301173.303125,1
5.0,3.4466666666666668,,,,1660301173.353125,1
5.0,-1.3033333333333335,,,,1660301173.403125,1
5.0,-5.173333333333333,,,,1660301173.453125,1
5.0,-5.222499999999999,0.057646,32.29,,1660301173.503125,1
5.0,-2.453333333333333,,,,1660301173.553125,1
5.0,-1.1766666666666665,,,,1660301173.603125,1
5.0,3.643333333333333,,,,1660301173.653125,1
5.0,7.666666666666667,,,,1660301173.703125,1
5.0,6.84,0.060208,32.29,,1660301173.753125,1
5.0,7.403333333333333,,,,1660301173.803125,1
5.0,7.330000000000001,,,,1660301173.853125,1
5.0,7.830000000000001,,,,1660301173.903125,1
5.0,12.136666666666665,,,,1660301173.953125,1
5.0,16.035,0.058927,32.29,,1660301174.003125,1
5.0,17.776666666666667,,,,1660301174.053125,1
5.0,21.86,,,,1660301174.103125,1
5.0,26.810000000000002,,,,1660301174.153125,1
5.0,30.906666666666666,,,,1660301174.203125,1
5.0,32.7875,0.057646,32.31,,1660301174.253125,1
5.0,28.093333333333334,,,,1660301174.303125,1
5.0,20.62,,,,1660301174.353125,1
5.0,14.246666666666664,,,,1660301174.403125,1
5.0,6.266666666666667,,,,1660301174.453125,1
5.0,-26.034999999999997,0.058927,32.31,,1660301174.503125,1
5.0,-33.18,,,,1660301174.553125,1
5.0,2.4333333333333336,,,,1660301174.603125,1
5.0,31.849999999999998,,,,1660301174.653125,1
5.0,19.439999999999998,,,,1660301174.703125,1
5.0,-22.722499999999997,0.056365,32.31,,1660301174.753125,1
5.0,-35.75333333333333,,,,1660301174.803125,1
5.0,-27.64,,,,1660301174.853125,1
5.0,-17.743333333333336,,,,1660301174.903125,1
5.0,-12.469999999999999,,,,1660301174.953125,1
5.0,-10.65,0.055084,32.31,,1660301175.003125,1
5.0,-7.823333333333333,,,,1660301175.053125,1
5.0,-4.3966666666666665,,,,1660301175.103125,1
5.0,-3.1566666666666663,,,,1660301175.153125,1
5.0,-5.1466666666666665,,,,1660301175.203125,1
5.0,-8.8925,0.056365,32.33,,1660301175.253125,1
5.0,-8.936666666666667,,,,1660301175.303125,1
5.0,-9.613333333333333,,,,1660301175.353125,1
5.0,-10.363333333333333,,,,1660301175.403125,1
5.0,-8.18,,,,1660301175.453125,1
5.0,-5.85,0.058927,32.33,,1660301175.503125,1
5.0,-5.396666666666666,,,,1660301175.553125,1
5.0,-6.84,,,,1660301175.603125,1
5.0,-8.353333333333333,,,,1660301175.653125,1
5.0,-8.383333333333335,,,,1660301175.703125,1
5.0,-8.5625,0.060208,32.33,,1660301175.753125,1
5.0,-11.193333333333333,,,,1660301175.803125,1
5.0,-13.426666666666668,,,,1660301175.853125,1
5.0,-11.780000000000001,,,,1660301175.903125,1
5.0,-10.193333333333333,,,,1660301175.953125,1
5.0,-13.004999999999999,0.058927,32.33,,1660301176.003125,1
5.0,-17.38333333333333,,,,1660301176.053125,1
5.0,-23.10666666666667,,,,1660301176.103125,1
5.0,-27.99,,,,1660301176.153125,1
5.0,-27.069999999999997,,,,1660301176.203125,1
5.0,-17.5,0.058927,32.31,,1660301176.253125,1
5.0,-3.766666666666667,,,,1660301176.303125,1
5.0,2.33,,,,1660301176.353125,1
5.0,9.373333333333333,,,,1660301176.403125,1
5.0,28.763333333333332,,,,1660301176.453125,1
5.0,57.785,0.057646,32.31,,1660301176.503125,1
5.0,80.43,,,,1660301176.553125,1
5.0,85.45666666666666,,,,1660301176.603125,1
5.0,68.14,,,,1660301176.653125,1
5.0,32.083333333333336,,,,1660301176.703125,1
5.0,7.257499999999999,0.057646,32.31,,1660301176.753125,1
5.0,-1.7266666666666668,,,,1660301176.803125,1
5.0,-10.493333333333332,,,,1660301176.853125,1
5.0,-10.226666666666668,,,,1660301176.903125,1
5.0,-4.02,,,,1660301176.953125,1
5.0,-6.3325,0.057646,32.31,,1660301177.003125,1
5.0,-16.96666666666667,,,,1660301177.053125,1
5.0,-19.636666666666667,,,,1660301177.103125,1
5.0,-17.986666666666668,,,,1660301177.153125,1
5.0,-16.900000000000002,,,,1660301177.203125,1
5.0,-16.622500000000002,0.057646,32.29,,1660301177.253125,1
5.0,-17.07,,,,1660301177.303125,1
5.0,-15.616666666666667,,,,1660301177.353125,1
5.0,-13.993333333333334,,,,1660301177.403125,1
5.0,-12.39,,,,1660301177.453125,1
5.0,-11.2575,0.061489,32.29,,1660301177.503125,1
5.0,-12.076666666666668,,,,1660301177.553125,1
5.0,-13.016666666666666,,,,1660301177.603125,1
5.0,-10.496666666666668,,,,1660301177.653125,1
5.0,-3.19,,,,1660301177.703125,1
5.0,4.3925,0.061489,32.29,,1660301177.753125,1
5.0,8.126666666666667,,,,1660301177.803125,1
5.0,7.716666666666666,,,,1660301177.853125,1
5.0,5.44,,,,1660301177.903125,1
5.0,3.896666666666667,,,,1660301177.953125,1
5.0,2.1149999999999998,0.06277,32.29,,1660301178.003125,1
5.0,0.75,,,,1660301178.053125,1
5.0,-1.55,,,,1660301178.103125,1
5.0,-5.153333333333333,,,,1660301178.153125,1
5.0,-11.703333333333333,,,,1660301178.203125,1
5.0,-18.2175,0.06277,32.33,,1660301178.253125,1
5.0,-18.136666666666667,,,,1660301178.303125,1
5.0,-14.90333333333333,,,,1660301178.353125,1
5.0,-9.576666666666666,,,,1660301178.403125,1
5.0,0.3099999999999999,,,,1660301178.453125,1
5.0,9.379999999999999,0.060208,32.33,,1660301178.503125,1
5.0,12.546666666666667,,,,1660301178.553125,1
5.0,14.44,,,,1660301178.603125,1
5.0,14.693333333333333,,,,1660301178.653125,1
5.0,15.26,,,,1660301178.703125,1
5.0,12.4825,0.058927,32.33,,1660301178.753125,1
5.0,8.913333333333334,,,,1660301178.803125,1
5.0,6.43,,,,1660301178.853125,1
5.0,9.24,,,,1660301178.903125,1
5.0,19.150000000000002,,,,1660301178.953125,1
5.0,28.9475,0.060208,32.33,,1660301179.003125,1
5.0,33.10666666666666,,,,1660301179.053125,1
5.0,34.64,,,,1660301179.103125,1
5.0,25.040000000000003,,,,1660301179.153125,1
5.0,-14.346666666666666,,,,1660301179.203125,1
5.0,-36.8275,0.058927,32.29,,1660301179.253125,1
5.0,0.7099999999999996,,,,1660301179.303125,1
5.0,29.233333333333334,,,,1660301179.353125,1
5.0,15.530000000000001,,,,1660301179.403125,1
5.0,-16.386666666666667,,,,1660301179.453125,1
5.0,-24.0475,0.06277,32.29,,1660301179.503125,1
5.0,-13.486666666666666,,,,1660301179.553125,1
5.0,-6.403333333333333,,,,1660301179.603125,1
5.0,-0.36999999999999994,,,,1660301179.653125,1
5.0,4.403333333333333,,,,1660301179.703125,1
5.0,8.245,0.064051,32.29,,1660301179.753125,1
5.0,9.62,,,,1660301179.803125,1
5.0,6.016666666666666,,,,1660301179.853125,1
5.0,1.08,,,,1660301179.903125,1
5.0,-4.76,,,,1660301179.953125,1
5.0,-10.2825,0.064051,32.29,,1660301180.003125,1
5.0,-15.543333333333331,,,,1660301180.053125,1
5.0,-19.786666666666665,,,,1660301180.103125,1
5.0,-18.613333333333333,,,,1660301180.153125,1
5.0,-16.013333333333335,,,,1660301180.203125,1
5.0,-12.125,0.061489,32.29,,1660301180.253125,1
5.0,-9.806666666666667,,,,1660301180.303125,1
5.0,-10.086666666666666,,,,1660301180.353125,1
5.0,-8.513333333333334,,,,1660301180.403125,1
5.0,-6.516666666666667,,,,1660301180.453125,1
5.0,-5.2325,0.060208,32.29,,1660301180.503125,1
5.0,-4.8933333333333335,,,,1660301180.553125,1
5.0,-5.2299999999999995,,,,1660301180.603125,1
5.0,-7.983333333333333,,,,1660301180.653125,1
5.0,-11.910000000000002,,,,1660301180.703125,1
5.0,-11.967500000000001,0.06277,32.29,,1660301180.753125,1
5.0,-7.883333333333333,,,,1660301180.803125,1
5.0,-3.5999999999999996,,,,1660301180.853125,1
5.0,4.27,,,,1660301180.903125,1
5.0,12.99,,,,1660301180.953125,1
5.0,17.3775,0.060208,32.29,,1660301181.003125,1
5.0,16.776666666666667,,,,1660301181.053125,1
5.0,15.133333333333333,,,,1660301181.103125,1
5.0,13.58,,,,1660301181.153125,1
5.0,10.819999999999999,,,,1660301181.203125,1
5.0,16.085,0.064051,32.29,,1660301181.253125,1
5.0,23.653333333333332,,,,1660301181.303125,1
5.0,6.003333333333334,,,,1660301181.353125,1
5.0,-17.22,,,,1660301181.403125,1
5.0,-6.2299999999999995,,,,1660301181.453125,1
5.0,30.57,0.064051,32.29,,1660301181.503125,1
5.0,30.823333333333334,,,,1660301181.553125,1
5.0,0.016666666666666313,,,,1660301181.603125,1
5.0,-18.623333333333335,,,,1660301181.653125,1
5.0,-20.536666666666665,,,,1660301181.703125,1
5.0,-18.5675,0.06277,32.29,,1660301181.753125,1
5.0,-17.526666666666667,,,,1660301181.803125,1
5.0,-13.246666666666664,,,,1660301181.853125,1
5.0,-10.033333333333333,,,,1660301181.903125,1
5.0,-7.8500000000000005,,,,1660301181.953125,1
5.0,0.8475000000000001,0.064051,32.29,,1660301182.003125,1
5.0,7.5566666666666675,,,,1660301182.053125,1
5.0,7.693333333333334,,,,1660301182.103125,1
5.0,7.68,,,,1660301182.153125,1
5.0,8.086666666666666,,,,1660301182.203125,1
5.0,8.625,0.064051,32.29,,1660301182.253125,1
5.0,7.126666666666668,,,,1660301182.303125,1
5.0,6.079999999999999,,,,1660301182.353125,1
5.0,5.22,,,,1660301182.403125,1
5.0,4.930000000000001,,,,1660301182.453125,1
5.0,2.4675000000000002,0.061489,32.29,,1660301182.503125,1
5.0,-0.75,,,,1660301182.553125,1
5.0,-0.08333333333333337,,,,1660301182.603125,1
5.0,2.353333333333333,,,,1660301182.653125,1
5.0,2.25,,,,1660301182.703125,1
5.0,-2.0175,0.061489,32.29,,1660301182.753125,1
5.0,-4.963333333333334,,,,1660301182.803125,1
5.0,-4.153333333333333,,,,1660301182.853125,1
5.0,-3.15,,,,1660301182.903125,1
5.0,-4.19,,,,1660301182.953125,1
5.0,-6.612500000000001,0.060208,32.29,,1660301183.003125,1
5.0,-10.399999999999999,,,,1660301183.053125,1
5.0,-16.273333333333333,,,,1660301183.103125,1
5.0,-22.320000000000004,,,,1660301183.153125,1
5.0,-25.046666666666667,,,,1660301183.203125,1
5.0,-26.165,0.064051,32.27,,1660301183.253125,1
5.0,-31.64,,,,1660301183.303125,1
5.0,-34.02,,,,1660301183.353125,1
5.0,-25.599999999999998,,,,1660301183.403125,1
5.0,-10.520000000000001,,,,1660301183.453125,1
5.0,10.629999999999999,0.065332,32.27,,1660301183.503125,1
5.0,22.356666666666666,,,,1660301183.553125,1
5.0,20.946666666666665,,,,1660301183.603125,1
5.0,20.483333333333334,,,,1660301183.653125,1
5.0,19.703333333333333,,,,1660301183.703125,1
5.0,18.535,0.065332,32.27,,1660301183.753125,1
5.0,16.653333333333332,,,,1660301183.803125,1
5.0,16.246666666666666,,,,1660301183.853125,1
5.0,14.85,,,,1660301183.903125,1
5.0,8.943333333333333,,,,1660301183.953125,1
5.0,1.9500000000000002,0.065332,32.27,,1660301184.003125,1
5.0,-4.8133333333333335,,,,1660301184.053125,1
5.0,-8.553333333333333,,,,1660301184.103125,1
5.0,-9.283333333333333,,,,1660301184.153125,1
5.0,-9.926666666666668,,,,1660301184.203125,1
5.0,-9.120000000000001,0.065332,32.29,,1660301184.253125,1
5.0,-9.613333333333333,,,,1660301184.303125,1
5.0,-11.156666666666666,,,,1660301184.353125,1
5.0,-10.703333333333333,,,,1660301184.403125,1
5.0,-5.746666666666667,,,,1660301184.453125,1
5.0,-1.1325,0.06277,32.29,,1660301184.503125,1
5.0,1.23,,,,1660301184.553125,1
5.0,2.4066666666666667,,,,1660301184.603125,1
5.0,1.5866666666666667,,,,1660301184.653125,1
5.0,1.32,,,,1660301184.703125,1
5.0,-0.2225,0.06277,32.29,,1660301184.753125,1
5.0,-1.9633333333333336,,,,1660301184.803125,1
5.0,-2.453333333333333,,,,1660301184.853125,1
5.0,-4.693333333333333,,,,1660301184.903125,1
5.0,-6.46,,,,1660301184.953125,1
5.0,-4.4525,0.06277,32.29,,1660301185.003125,1
5.0,-1.0566666666666669,,,,1660301185.053125,1
5.0,-0.9633333333333333,,,,1660301185.103125,1
5.0,-1.9233333333333336,,,,1660301185.153125,1
5.0,-4.989999999999999,,,,1660301185.203125,1
5.0,-9.125,0.066613,32.27,,1660301185.253125,1
5.0,-12.156666666666666,,,,1660301185.303125,1
5.0,-12.826666666666668,,,,1660301185.353125,1
5.0,-8.959999999999999,,,,1660301185.403125,1
5.0,-6.080000000000001,,,,1660301185.453125,1
5.0,-4.115,0.067894,32.27,,1660301185.503125,1
5.0,2.1366666666666663,,,,1660301185.553125,1
5.0,9.87,,,,1660301185.603125,1
5.0,17.406666666666666,,,,1660301185.653125,1
5.0,20.23,,,,1660301185.703125,1
5.0,8.4875,0.066613,32.27,,1660301185.753125,1
5.0,-1.2333333333333332,,,,1660301185.803125,1
5.0,12.83,,,,1660301185.853125,1
5.0,18.106666666666666,,,,1660301185.903125,1
5.0,4.713333333333334,,,,1660301185.953125,1
5.0,1.635,0.065332,32.27,,1660301186.003125,1
5.0,10.503333333333334,,,,1660301186.053125,1
5.0,11.660000000000002,,,,1660301186.103125,1
5.0,1.6933333333333334,,,,1660301186.153125,1
5.0,-4.03,,,,1660301186.203125,1
5.0,1.905,0.064051,32.27,,1660301186.253125,1
5.0,5.926666666666667,,,,1660301186.303125,1
5.0,6.276666666666666,,,,1660301186.353125,1
5.0,7.023333333333333,,,,1660301186.403125,1
5.0,8.586666666666668,,,,1660301186.453125,1
5.0,7.1075,0.06277,32.27,,1660301186.503125,1
5.0,0.9800000000000001,,,,1660301186.553125,1
5.0,-3.4233333333333333,,,,1660301186.603125,1
5.0,-5.579999999999999,,,,1660301186.653125,1
5.0,-7.97,,,,1660301186.703125,1
5.0,-9.5225,0.06277,32.27,,1660301186.753125,1
5.0,-5.003333333333333,,,,1660301186.803125,1
5.0,-0.15333333333333332,,,,1660301186.853125,1
5.0,0.20666666666666667,,,,1660301186.903125,1
5.0,-0.5499999999999999,,,,1660301186.953125,1
5.0,0.08749999999999998,0.061489,32.27,,1660301187.003125,1
5.0,0.5233333333333333,,,,1660301187.053125,1
5.0,-1.9733333333333334,,,,1660301187.103125,1
5.0,-3.313333333333333,,,,1660301187.153125,1
5.0,-4.716666666666667,,,,1660301187.203125,1
5.0,-9.89,0.065332,32.27,,1660301187.253125,1
5.0,-15.606666666666667,,,,1660301187.303125,1
5.0,-16.386666666666667,,,,1660301187.353125,1
5.0,-10.950000000000001,,,,1660301187.403125,1
5.0,-7.62,,,,1660301187.453125,1
5.0,-7.1575,0.065332,32.27,,1660301187.503125,1
5.0,-6.203333333333333,,,,1660301187.553125,1
5.0,-3.626666666666667,,,,1660301187.603125,1
5.0,-0.06666666666666665,,,,1660301187.653125,1
5.0,0.7333333333333334,,,,1660301187.703125,1
5.0,-0.10250000000000001,0.065332,32.27,,1660301187.753125,1
5.0,-0.48,,,,1660301187.803125,1
5.0,-2.2433333333333336,,,,1660301187.853125,1
5.0,-5.403333333333333,,,,1660301187.903125,1
5.0,-5.403333333333333,,,,1660301187.953125,1
5.0,6.055,0.065332,32.27,,1660301188.003125,1
5.0,17.72666666666667,,,,1660301188.053125,1
5.0,22.623333333333335,,,,1660301188.103125,1
5.0,26.98333333333333,,,,1660301188.153125,1
5.0,27.87,,,,1660301188.203125,1
5.0,22.68,0.065332,32.29,,1660301188.253125,1
5.0,14.263333333333334,,,,1660301188.303125,1
5.0,6.786666666666666,,,,1660301188.353125,1
5.0,1.4966666666666664,,,,1660301188.403125,1
5.0,-3.3299999999999996,,,,1660301188.453125,1
5.0,-7.975,0.06277,32.29,,1660301188.503125,1
5.0,-11.673333333333332,,,,1660301188.553125,1
5.0,-14.023333333333333,,,,1660301188.603125,1
5.0,-11.020000000000001,,,,1660301188.653125,1
5.0,-5.2299999999999995,,,,1660301188.703125,1
5.0,-1.2149999999999999,0.06277,32.29,,1660301188.753125,1
5.0,1.6966666666666665,,,,1660301188.803125,1
5.0,0.5733333333333334,,,,1660301188.853125,1
5.0,-2.0833333333333335,,,,1660301188.903125,1
5.0,-3.14,,,,1660301188.953125,1
5.0,-4.0,0.061489,32.29,,1660301189.003125,1
5.0,-4.5633333333333335,,,,1660301189.053125,1
5.0,-4.420000000000001,,,,1660301189.103125,1
5.0,-4.746666666666667,,,,1660301189.153125,1
5.0,-6.726666666666667,,,,1660301189.203125,1
5.0,-6.074999999999999,0.066613,32.27,,1660301189.253125,1
5.0,-0.6133333333333333,,,,1660301189.303125,1
5.0,2.623333333333333,,,,1660301189.353125,1
5.0,1.7766666666666666,,,,1660301189.403125,1
5.0,0.35333333333333333,,,,1660301189.453125,1
5.0,1.165,0.065332,32.27,,1660301189.503125,1
5.0,1.3566666666666667,,,,1660301189.553125,1
5.0,-0.03999999999999996,,,,1660301189.603125,1
5.0,-3.7566666666666664,,,,1660301189.653125,1
5.0,-7.976666666666667,,,,1660301189.703125,1
5.0,-12.737499999999999,0.065332,32.27,,1660301189.753125,1
5.0,-13.966666666666667,,,,1660301189.803125,1
5.0,-10.196666666666665,,,,1660301189.853125,1
5.0,-4.75,,,,1660301189.903125,1
5.0,-2.5533333333333332,,,,1660301189.953125,1
5.0,-1.6150000000000002,0.064051,32.27,,1660301190.003125,1
5.0,1.3566666666666667,,,,1660301190.053125,1
5.0,1.5999999999999999,,,,1660301190.103125,1
5.0,6.140000000000001,,,,1660301190.153125,1
5.0,14.166666666666666,,,,1660301190.203125,1
5.0,20.535,0.061489,32.27,,1660301190.253125,1
5.0,32.593333333333334,,,,1660301190.303125,1
5.0,39.446666666666665,,,,1660301190.353125,1
5.0,26.61,,,,1660301190.403125,1
5.0,7.410000000000001,,,,1660301190.453125,1
5.0,10.84,0.061489,32.27,,1660301190.503125,1
5.0,8.659999999999998,,,,1660301190.553125,1
5.0,-1.0466666666666666,,,,1660301190.603125,1
5.0,1.2933333333333332,,,,1660301190.653125,1
5.0,5.846666666666667,,,,1660301190.703125,1
5.0,2.89,0.061489,32.27,,1660301190.753125,1
5.0,-5.906666666666666,,,,1660301190.803125,1
5.0,-10.013333333333334,,,,1660301190.853125,1
5.0,-8.853333333333333,,,,1660301190.903125,1
5.0,-8.34,,,,1660301190.953125,1
5.0,-9.467500000000001,0.060208,32.27,,1660301191.003125,1
5.0,-10.563333333333333,,,,1660301191.053125,1
5.0,-13.573333333333332,,,,1660301191.103125,1
5.0,-12.28,,,,1660301191.153125,1
5.0,-5.390000000000001,,,,1660301191.203125,1
5.0,1.62,0.064051,32.27,,1660301191.253125,1
5.0,3.0700000000000003,,,,1660301191.303125,1
5.0,2.6799999999999997,,,,1660301191.353125,1
5.0,2.626666666666667,,,,1660301191.403125,1
5.0,1.0633333333333332,,,,1660301191.453125,1
5.0,-2.1775,0.065332,32.27,,1660301191.503125,1
5.0,-5.026666666666666,,,,1660301191.553125,1
5.0,-6.210000000000001,,,,1660301191.603125,1
5.0,-5.206666666666667,,,,1660301191.653125,1
5.0,-5.04,,,,1660301191.703125,1
5.0,-6.685,0.065332,32.27,,1660301191.753125,1
5.0,-5.663333333333333,,,,1660301191.803125,1
5.0,-2.8266666666666667,,,,1660301191.853125,1
5.0,-2.39,,,,1660301191.903125,1
5.0,-4.2299999999999995,,,,1660301191.953125,1
5.0,-5.8,0.06277,32.27,,1660301192.003125,1
5.0,-6.076666666666665,,,,1660301192.053125,1
5.0,-5.296666666666667,,,,1660301192.103125,1
5.0,-4.91,,,,1660301192.153125,1
5.0,-4.696666666666666,,,,1660301192.203125,1
5.0,-5.2725,0.061489,32.25,,1660301192.253125,1
5.0,-5.903333333333333,,,,1660301192.303125,1
5.0,-9.133333333333333,,,,1660301192.353125,1
5.0,-11.936666666666667,,,,1660301192.403125,1
5.0,-6.706666666666666,,,,1660301192.453125,1
5.0,3.2249999999999996,0.060208,32.25,,1660301192.503125,1
5.0,5.57,,,,1660301192.553125,1
5.0,7.083333333333333,,,,1660301192.603125,1
5.0,9.503333333333334,,,,1660301192.653125,1
5.0,10.909999999999998,,,,1660301192.703125,1
5.0,9.3375,0.061489,32.25,,1660301192.753125,1
5.0,4.44,,,,1660301192.803125,1
5.0,2.0100000000000002,,,,1660301192.853125,1
5.0,-3.94,,,,1660301192.903125,1
5.0,-16.73,,,,1660301192.953125,1
5.0,-29.055,0.060208,32.25,,1660301193.003125,1
5.0,-17.31,,,,1660301193.053125,1
5.0,14.61,,,,1660301193.103125,1
5.0,51.74,,,,1660301193.153125,1
5.0,70.21333333333332,,,,1660301193.203125,1
5.0,46.18750000000001,0.065332,32.25,,1660301193.253125,1
5.0,14.243333333333334,,,,1660301193.303125,1
5.0,4.596666666666667,,,,1660301193.353125,1
5.0,1.5366666666666668,,,,1660301193.403125,1
5.0,-0.053333333333333344,,,,1660301193.453125,1
5.0,2.6475,0.064051,32.25,,1660301193.503125,1
5.0,1.7666666666666666,,,,1660301193.553125,1
5.0,-9.113333333333333,,,,1660301193.603125,1
5.0,-15.593333333333334,,,,1660301193.653125,1
5.0,-10.896666666666667,,,,1660301193.703125,1
5.0,-5.285,0.06277,32.25,,1660301193.753125,1
5.0,-9.15,,,,1660301193.803125,1
5.0,-12.583333333333334,,,,1660301193.853125,1
5.0,-12.053333333333333,,,,1660301193.903125,1
5.0,-11.89,,,,1660301193.953125,1
5.0,-11.337499999999999,0.065332,32.25,,1660301194.003125,1
5.0,-9.206666666666665,,,,1660301194.053125,1
5.0,-6.576666666666667,,,,1660301194.103125,1
5.0,-6.823333333333333,,,,1660301194.153125,1
5.0,-10.313333333333333,,,,1660301194.203125,1
5.0,-11.5275,0.06277,32.27,,1660301194.253125,1
5.0,-10.756666666666668,,,,1660301194.303125,1
5.0,-5.473333333333334,,,,1660301194.353125,1
5.0,1.4799999999999998,,,,1660301194.403125,1
5.0,6.036666666666666,,,,1660301194.453125,1
5.0,7.17,0.061489,32.27,,1660301194.503125,1
5.0,6.46,,,,1660301194.553125,1
5.0,5.53,,,,1660301194.603125,1
5.0,1.8933333333333333,,,,1660301194.653125,1
5.0,-2.1366666666666667,,,,1660301194.703125,1
5.0,-2.745,0.061489,32.27,,1660301194.753125,1
5.0,-3.8433333333333333,,,,1660301194.803125,1
5.0,-9.013333333333334,,,,1660301194.853125,1
5.0,-11.75,,,,1660301194.903125,1
5.0,-7.599999999999999,,,,1660301194.953125,1
5.0,0.935,0.06277,32.27,,1660301195.003125,1
5.0,4.99,,,,1660301195.053125,1
5.0,8.406666666666666,,,,1660301195.103125,1
5.0,10.656666666666666,,,,1660301195.153125,1
5.0,9.33,,,,1660301195.203125,1
5.0,11.745,0.064051,32.27,,1660301195.253125,1
5.0,24.49,,,,1660301195.303125,1
5.0,46.25333333333333,,,,1660301195.353125,1
5.0,64.55333333333334,,,,1660301195.403125,1
5.0,64.64333333333333,,,,1660301195.453125,1
5.0,34.7675,0.064051,32.27,,1660301195.503125,1
5.0,1.0533333333333335,,,,1660301195.553125,1
5.0,-5.716666666666666,,,,1660301195.603125,1
5.0,-11.360000000000001,,,,1660301195.653125,1
5.0,-15.663333333333332,,,,1660301195.703125,1
5.0,-32.4475,0.064051,32.27,,1660301195.753125,1
5.0,-44.54666666666666,,,,1660301195.803125,1
5.0,-45.25333333333333,,,,1660301195.853125,1
5.0,-41.056666666666665,,,,1660301195.903125,1
5.0,-32.43,,,,1660301195.953125,1
5.0,-25.7725,0.061489,32.27,,1660301196.003125,1
5.0,-20.06,,,,1660301196.053125,1
5.0,-15.283333333333333,,,,1660301196.103125,1
5.0,-12.393333333333333,,,,1660301196.153125,1
5.0,-7.626666666666668,,,,1660301196.203125,1
5.0,0.5675000000000001,0.061489,32.25,,1660301196.253125,1
5.0,6.539999999999999,,,,1660301196.303125,1
5.0,8.68,,,,1660301196.353125,1
5.0,8.110000000000001,,,,1660301196.403125,1
5.0,6.203333333333333,,,,1660301196.453125,1
5.0,3.675,0.061489,32.25,,1660301196.503125,1
5.0,2.55,,,,1660301196.553125,1
5.0,2.31,,,,1660301196.603125,1
5.0,1.3499999999999999,,,,1660301196.653125,1
5.0,0.68,,,,1660301196.703125,1
5.0,-1.13,0.064051,32.25,,1660301196.753125,1
5.0,-6.53,,,,1660301196.803125,1
5.0,-9.366666666666667,,,,1660301196.853125,1
5.0,-6.03,,,,1660301196.903125,1
5.0,-2.2399999999999998,,,,1660301196.953125,1
5.0,2.075,0.06277,32.25,,1660301197.003125,1
5.0,6.736666666666667,,,,1660301197.053125,1
5.0,6.3933333333333335,,,,1660301197.103125,1
5.0,3.9966666666666666,,,,1660301197.153125,1
5.0,2.203333333333333,,,,1660301197.203125,1
5.0,-2.9675000000000002,0.064051,32.27,,1660301197.253125,1
5.0,-9.336666666666666,,,,1660301197.303125,1
5.0,-11.196666666666667,,,,1660301197.353125,1
5.0,-8.656666666666666,,,,1660301197.403125,1
5.0,-7.113333333333333,,,,1660301197.453125,1
5.0,-3.1225,0.064051,32.27,,1660301197.503125,1
5.0,9.316666666666666,,,,1660301197.553125,1
5.0,11.946666666666667,,,,1660301197.603125,1
5.0,5.743333333333333,,,,1660301197.653125,1
5.0,18.856666666666666,,,,1660301197.703125,1
5.0,58.9,0.061489,32.27,,1660301197.753125,1
5.0,71.03333333333333,,,,1660301197.803125,1
5.0,37.51333333333333,,,,1660301197.853125,1
5.0,-1.633333333333333,,,,1660301197.903125,1
5.0,-20.540000000000003,,,,1660301197.953125,1
5.0,-26.4325,0.064051,32.27,,1660301198.003125,1
5.0,-32.04,,,,1660301198.053125,1
5.0,-35.29333333333333,,,,1660301198.103125,1
5.0,-31.373333333333335,,,,1660301198.153125,1
5.0,-22.189999999999998,,,,1660301198.203125,1
5.0,-11.254999999999999,0.061489,32.25,,1660301198.253125,1
5.0,-2.2466666666666666,,,,1660301198.303125,1
5.0,1.0599999999999998,,,,1660301198.353125,1
5.0,2.0433333333333334,,,,1660301198.403125,1
5.0,3.01,,,,1660301198.453125,1
5.0,2.445,0.065332,32.25,,1660301198.503125,1
5.0,0.9966666666666667,,,,1660301198.553125,1
5.0,0.51,,,,1660301198.603125,1
5.0,0.6633333333333334,,,,1660301198.653125,1
5.0,0.9533333333333333,,,,1660301198.703125,1
5.0,-0.9375,0.061489,32.25,,1660301198.753125,1
5.0,-4.673333333333333,,,,1660301198.803125,1
5.0,-4.5,,,,1660301198.853125,1
5.0,0.24333333333333332,,,,1660301198.903125,1
5.0,3.7133333333333334,,,,1660301198.953125,1
5.0,2.885,0.064051,32.25,,1660301199.003125,1
5.0,0.45,,,,1660301199.053125,1
5.0,-2.5133333333333336,,,,1660301199.103125,1
5.0,-4.016666666666667,,,,1660301199.153125,1
5.0,-3.5500000000000003,,,,1660301199.203125,1
5.0,-4.5275,0.064051,32.23,,1660301199.253125,1
5.0,-5.226666666666667,,,,1660301199.303125,1
5.0,-1.5,,,,1660301199.353125,1
5.0,3.8333333333333335,,,,1660301199.403125,1
5.0,4.646666666666667,,,,1660301199.453125,1
5.0,3.7024999999999997,0.061489,32.23,,1660301199.503125,1
5.0,11.363333333333332,,,,1660301199.553125,1
5.0,19.703333333333333,,,,1660301199.603125,1
5.0,24.819999999999997,,,,1660301199.653125,1
5.0,23.596666666666668,,,,1660301199.703125,1
5.0,22.672500000000003,0.061489,32.23,,1660301199.753125,1
5.0,30.843333333333334,,,,1660301199.803125,1
5.0,20.046666666666667,,,,1660301199.853125,1
5.0,5.773333333333333,,,,1660301199.903125,1
5.0,31.406666666666666,,,,1660301199.953125,1
5.0,70.24000000000001,0.060208,32.23,,1660301200.003125,1
5.0,36.79333333333333,,,,1660301200.053125,1
5.0,-18.433333333333334,,,,1660301200.103125,1
5.0,-40.13666666666666,,,,1660301200.153125,1
5.0,-36.98,,,,1660301200.203125,1
5.0,-32.2325,0.064051,32.25,,1660301200.253125,1
5.0,-35.166666666666664,,,,1660301200.303125,1
5.0,-32.63666666666666,,,,1660301200.353125,1
5.0,-31.22666666666667,,,,1660301200.403125,1
5.0,-29.12,,,,1660301200.453125,1
5.0,-20.075000000000003,0.064051,32.25,,1660301200.503125,1
5.0,-11.743333333333332,,,,1660301200.553125,1
5.0,-7.206666666666667,,,,1660301200.603125,1
5.0,-3.42,,,,1660301200.653125,1
5.0,-0.02999999999999999,,,,1660301200.703125,1
5.0,-2.6425,0.064051,32.25,,1660301200.753125,1
5.0,-7.56,,,,1660301200.803125,1
5.0,-6.273333333333333,,,,1660301200.853125,1
5.0,-2.11,,,,1660301200.903125,1
5.0,-0.06999999999999999,,,,1660301200.953125,1
5.0,2.0675,0.064051,32.25,,1660301201.003125,1
5.0,3.2000000000000006,,,,1660301201.053125,1
5.0,2.6700000000000004,,,,1660301201.103125,1
5.0,0.5300000000000001,,,,1660301201.153125,1
5.0,-1.4566666666666668,,,,1660301201.203125,1
5.0,-1.4025,0.060208,32.23,,1660301201.253125,1
5.0,-1.8533333333333335,,,,1660301201.303125,1
5.0,-1.93,,,,1660301201.353125,1
5.0,-4.043333333333333,,,,1660301201.403125,1
5.0,-6.4799999999999995,,,,1660301201.453125,1
5.0,-6.5575,0.061489,32.23,,1660301201.503125,1
5.0,-3.8866666666666667,,,,1660301201.553125,1
5.0,-3.9233333333333333,,,,1660301201.603125,1
5.0,-3.4599999999999995,,,,1660301201.653125,1
5.0,-0.9900000000000001,,,,1660301201.703125,1
5.0,-1.2925,0.060208,32.23,,1660301201.753125,1
5.0,-2.77,,,,1660301201.803125,1
5.0,-4.12,,,,1660301201.853125,1
5.0,-5.303333333333334,,,,1660301201.903125,1
5.0,-4.21,,,,1660301201.953125,1
5.0,-2.5425,0.06277,32.23,,1660301202.003125,1
5.0,-6.353333333333334,,,,1660301202.053125,1
5.0,-6.836666666666667,,,,1660301202.103125,1
5.0,4.093333333333334,,,,1660301202.153125,1
5.0,10.450000000000001,,,,1660301202.203125,1
5.0,7.9875,0.064051,32.23,,1660301202.253125,1
5.0,16.423333333333336,,,,1660301202.303125,1
5.0,26.179999999999996,,,,1660301202.353125,1
5.0,27.31,,,,1660301202.403125,1
5.0,20.493333333333336,,,,1660301202.453125,1
5.0,7.8475,0.06277,32.23,,1660301202.503125,1
5.0,-0.13999999999999999,,,,1660301202.553125,1
5.0,-4.986666666666667,,,,1660301202.603125,1
5.0,-6.786666666666666,,,,1660301202.653125,1
5.0,-7.296666666666667,,,,1660301202.703125,1
5.0,-9.879999999999999,0.06277,32.23,,1660301202.753125,1
5.0,-11.156666666666666,,,,1660301202.803125,1
5.0,-8.486666666666666,,,,1660301202.853125,1
5.0,-0.9533333333333335,,,,1660301202.903125,1
5.0,4.6066666666666665,,,,1660301202.953125,1
5.0,8.1525,0.064051,32.23,,1660301203.003125,1
5.0,10.633333333333333,,,,1660301203.053125,1
5.0,10.200000000000001,,,,1660301203.103125,1
5.0,8.026666666666666,,,,1660301203.153125,1
5.0,5.896666666666667,,,,1660301203.203125,1
5.0,2.4650000000000003,0.061489,32.23,,1660301203.253125,1
5.0,-0.3466666666666667,,,,1660301203.303125,1
5.0,-3.9933333333333336,,,,1660301203.353125,1
5.0,-9.263333333333334,,,,1660301203.403125,1
5.0,-12.88,,,,1660301203.453125,1
5.0,-11.2775,0.061489,32.23,,1660301203.503125,1
5.0,-8.2,,,,1660301203.553125,1
5.0,-7.109999999999999,,,,1660301203.603125,1
5.0,-5.733333333333333,,,,1660301203.653125,1
5.0,-5.256666666666667,,,,1660301203.703125,1
5.0,-3.6,0.061489,32.23,,1660301203.753125,1
5.0,2.0466666666666664,,,,1660301203.803125,1
5.0,7.3933333333333335,,,,1660301203.853125,1
5.0,6.566666666666666,,,,1660301203.903125,1
5.0,0.8833333333333334,,,,1660301203.953125,1
5.0,-4.8175,0.064051,32.23,,1660301204.003125,1
5.0,-8.64,,,,1660301204.053125,1
5.0,-12.729999999999999,,,,1660301204.103125,1
5.0,-12.043333333333331,,,,1660301204.153125,1
5.0,1.4866666666666664,,,,1660301204.203125,1
5.0,24.09,0.064051,32.23,,1660301204.253125,1
5.0,33.23,,,,1660301204.303125,1
5.0,23.036666666666665,,,,1660301204.353125,1
5.0,14.976666666666667,,,,1660301204.403125,1
5.0,19.233333333333334,,,,1660301204.453125,1
5.0,21.974999999999998,0.065332,32.23,,1660301204.503125,1
5.0,13.643333333333336,,,,1660301204.553125,1
5.0,5.636666666666667,,,,1660301204.603125,1
5.0,3.223333333333333,,,,1660301204.653125,1
5.0,1.4400000000000002,,,,1660301204.703125,1
5.0,-3.8175,0.06277,32.23,,1660301204.753125,1
5.0,-7.54,,,,1660301204.803125,1
5.0,-9.843333333333334,,,,1660301204.853125,1
5.0,-9.123333333333333,,,,1660301204.903125,1
5.0,-1.6566666666666665,,,,1660301204.953125,1
5.0,5.1975,0.061489,32.23,,1660301205.003125,1
5.0,7.493333333333333,,,,1660301205.053125,1
5.0,7.173333333333333,,,,1660301205.103125,1
5.0,5.11,,,,1660301205.153125,1
5.0,3.6,,,,1660301205.203125,1
5.0,1.2825,0.064051,32.23,,1660301205.253125,1
5.0,0.4666666666666666,,,,1660301205.303125,1
5.0,-1.2233333333333334,,,,1660301205.353125,1
5.0,-3.9766666666666666,,,,1660301205.403125,1
5.0,-4.24,,,,1660301205.453125,1
5.0,-7.4,0.060208,32.23,,1660301205.503125,1
5.0,-10.856666666666667,,,,1660301205.553125,1
5.0,-8.626666666666665,,,,1660301205.603125,1
5.0,-6.003333333333333,,,,1660301205.653125,1
5.0,-5.136666666666667,,,,1660301205.703125,1
5.0,-5.65,0.06277,32.23,,1660301205.753125,1
5.0,-9.946666666666667,,,,1660301205.803125,1
5.0,-9.593333333333332,,,,1660301205.853125,1
5.0,-3.853333333333333,,,,1660301205.903125,1
5.0,1.6833333333333333,,,,1660301205.953125,1
5.0,5.8500000000000005,0.064051,32.23,,1660301206.003125,1
5.0,3.6966666666666668,,,,1660301206.053125,1
5.0,1.97,,,,1660301206.103125,1
5.0,3.7133333333333334,,,,1660301206.153125,1
5.0,0.7833333333333332,,,,1660301206.203125,1
5.0,-0.34750000000000003,0.064051,32.23,,1660301206.253125,1
5.0,15.203333333333333,,,,1660301206.303125,1
5.0,18.006666666666664,,,,1660301206.353125,1
5.0,-0.6533333333333333,,,,1660301206.403125,1
5.0,-5.146666666666667,,,,1660301206.453125,1
5.0,10.7,0.064051,32.23,,1660301206.503125,1
5.0,16.843333333333334,,,,1660301206.553125,1
5.0,9.22,,,,1660301206.603125,1
5.0,1.4133333333333333,,,,1660301206.653125,1
5.0,1.1733333333333333,,,,1660301206.703125,1
5.0,-0.20749999999999996,0.064051,32.23,,1660301206.753125,1
5.0,-3.8866666666666667,,,,1660301206.803125,1
5.0,-5.353333333333334,,,,1660301206.853125,1
5.0,-7.063333333333333,,,,1660301206.903125,1
5.0,-9.0,,,,1660301206.953125,1
5.0,-11.294999999999998,0.061489,32.23,,1660301207.003125,1
5.0,-9.96,,,,1660301207.053125,1
5.0,-4.076666666666667,,,,1660301207.103125,1
5.0,1.95,,,,1660301207.153125,1
5.0,4.6433333333333335,,,,1660301207.203125,1
5.0,2.8724999999999996,0.060208,32.23,,1660301207.253125,1
5.0,0.79,,,,1660301207.303125,1
5.0,0.4466666666666666,,,,1660301207.353125,1
5.0,0.04000000000000001,,,,1660301207.403125,1
5.0,-0.7466666666666667,,,,1660301207.453125,1
5.0,-4.6825,0.061489,32.23,,1660301207.503125,1
5.0,-8.946666666666667,,,,1660301207.553125,1
5.0,-9.633333333333333,,,,1660301207.603125,1
5.0,-10.620000000000001,,,,1660301207.653125,1
5.0,-14.443333333333333,,,,1660301207.703125,1
5.0,-17.1275,0.064051,32.23,,1660301207.753125,1
5.0,-14.6,,,,1660301207.803125,1
5.0,-11.533333333333333,,,,1660301207.853125,1
5.0,-9.943333333333333,,,,1660301207.903125,1
5.0,-7.8066666666666675,,,,1660301207.953125,1
5.0,-1.61,0.065332,32.23,,1660301208.003125,1
5.0,1.8099999999999998,,,,1660301208.053125,1
5.0,1.1533333333333333,,,,1660301208.103125,1
5.0,1.0366666666666666,,,,1660301208.153125,1
5.0,6.69,,,,1660301208.203125,1
5.0,10.305,0.065332,32.23,,1660301208.253125,1
5.0,6.169999999999999,,,,1660301208.303125,1
5.0,2.7366666666666664,,,,1660301208.353125,1
5.0,0.4566666666666667,,,,1660301208.403125,1
5.0,3.41,,,,1660301208.453125,1
5.0,11.5575,0.06277,32.23,,1660301208.503125,1
5.0,15.836666666666668,,,,1660301208.553125,1
5.0,15.573333333333332,,,,1660301208.603125,1
5.0,12.51,,,,1660301208.653125,1
5.0,6.926666666666667,,,,1660301208.703125,1
5.0,0.7325000000000002,0.064051,32.23,,1660301208.753125,1
5.0,-4.506666666666667,,,,1660301208.803125,1
5.0,-4.406666666666667,,,,1660301208.853125,1
5.0,2.126666666666667,,,,1660301208.903125,1
5.0,8.006666666666666,,,,1660301208.953125,1
5.0,9.355,0.06277,32.23,,1660301209.003125,1
5.0,7.886666666666667,,,,1660301209.053125,1
5.0,5.3500000000000005,,,,1660301209.103125,1
5.0,-2.4433333333333334,,,,1660301209.153125,1
5.0,-9.31,,,,1660301209.203125,1
5.0,-6.2125,0.06277,32.21,,1660301209.253125,1
5.0,-2.686666666666667,,,,1660301209.303125,1
5.0,-2.596666666666667,,,,1660301209.353125,1
5.0,-1.2333333333333332,,,,1660301209.403125,1
5.0,-0.2833333333333334,,,,1660301209.453125,1
5.0,-1.415,0.061489,32.21,,1660301209.503125,1
5.0,-2.793333333333333,,,,1660301209.553125,1
5.0,-3.073333333333333,,,,1660301209.603125,1
5.0,-3.706666666666667,,,,1660301209.653125,1
5.0,-8.753333333333332,,,,1660301209.703125,1
5.0,-10.604999999999999,0.064051,32.21,,1660301209.753125,1
5.0,-10.526666666666666,,,,1660301209.803125,1
5.0,-12.450000000000001,,,,1660301209.853125,1
5.0,-14.266666666666666,,,,1660301209.903125,1
5.0,-11.22,,,,1660301209.953125,1
5.0,-3.195,0.065332,32.21,,1660301210.003125,1
5.0,-0.6066666666666666,,,,1660301210.053125,1
5.0,-0.12000000000000001,,,,1660301210.103125,1
5.0,0.5033333333333333,,,,1660301210.153125,1
5.0,0.19333333333333336,,,,1660301210.203125,1
5.0,-0.6325000000000001,0.064051,32.23,,1660301210.253125,1
5.0,-3.74,,,,1660301210.303125,1
5.0,-8.979999999999999,,,,1660301210.353125,1
5.0,-13.476666666666667,,,,1660301210.403125,1
5.0,-18.16,,,,1660301210.453125,1
5.0,-26.5475,0.064051,32.23,,1660301210.503125,1
5.0,-29.040000000000003,,,,1660301210.553125,1
5.0,-14.996666666666668,,,,1660301210.603125,1
5.0,4.173333333333334,,,,1660301210.653125,1
5.0,16.083333333333332,,,,1660301210.703125,1
5.0,24.410000000000004,0.06277,32.23,,1660301210.753125,1
5.0,35.92666666666667,,,,1660301210.803125,1
5.0,49.376666666666665,,,,1660301210.853125,1
5.0,54.43666666666667,,,,1660301210.903125,1
5.0,45.78333333333333,,,,1660301210.953125,1
5.0,26.0025,0.060208,32.23,,1660301211.003125,1
5.0,10.236666666666666,,,,1660301211.053125,1
5.0,12.136666666666665,,,,1660301211.103125,1
5.0,15.653333333333334,,,,1660301211.153125,1
5.0,3.0866666666666664,,,,1660301211.203125,1
5.0,-16.8,0.061489,32.23,,1660301211.253125,1
5.0,-19.383333333333336,,,,1660301211.303125,1
5.0,-13.146666666666667,,,,1660301211.353125,1
5.0,-9.806666666666667,,,,1660301211.403125,1
5.0,-8.843333333333334,,,,1660301211.453125,1
5.0,-6.947500000000001,0.060208,32.23,,1660301211.503125,1
5.0,-5.426666666666666,,,,1660301211.553125,1
5.0,-7.47,,,,1660301211.603125,1
5.0,-9.006666666666668,,,,1660301211.653125,1
5.0,-9.143333333333333,,,,1660301211.703125,1
5.0,-10.785,0.080704,32.23,,1660301211.753125,1
5.0,-10.4,,,,1660301211.803125,1
5.0,-10.176666666666668,,,,1660301211.853125,1
5.0,-14.976666666666667,,,,1660301211.903125,1
5.0,-18.429999999999996,,,,1660301211.953125,1
5.0,-10.5725,0.06277,32.23,,1660301212.003125,1
5.0,-1.6499999999999997,,,,1660301212.053125,1
5.0,2.1966666666666668,,,,1660301212.103125,1
5.0,3.4333333333333336,,,,1660301212.153125,1
5.0,3.116666666666667,,,,1660301212.203125,1
5.0,5.744999999999999,0.06277,32.21,,1660301212.253125,1
5.0,8.866666666666667,,,,1660301212.303125,1
5.0,9.326666666666666,,,,1660301212.353125,1
5.0,8.973333333333333,,,,1660301212.403125,1
5.0,6.913333333333333,,,,1660301212.453125,1
5.0,1.9800000000000002,0.064051,32.21,,1660301212.503125,1
5.0,-7.053333333333334,,,,1660301212.553125,1
5.0,-14.950000000000001,,,,1660301212.603125,1
5.0,-16.27333333333333,,,,1660301212.653125,1
5.0,-9.736666666666666,,,,1660301212.703125,1
5.0,9.04,0.06277,32.21,,1660301212.753125,1
5.0,29.58,,,,1660301212.803125,1
5.0,33.89000000000001,,,,1660301212.853125,1
5.0,37.96,,,,1660301212.903125,1
5.0,46.78333333333333,,,,1660301212.953125,1
5.0,32.800000000000004,0.060208,32.21,,1660301213.003125,1
5.0,-6.916666666666667,,,,1660301213.053125,1
5.0,-24.183333333333334,,,,1660301213.103125,1
5.0,-22.340000000000003,,,,1660301213.153125,1
5.0,-22.006666666666664,,,,1660301213.203125,1
5.0,-31.6425,0.060208,32.23,,1660301213.253125,1
5.0,-42.24333333333333,,,,1660301213.303125,1
5.0,-35.193333333333335,,,,1660301213.353125,1
5.0,-22.793333333333333,,,,1660301213.403125,1
5.0,-13.253333333333336,,,,1660301213.453125,1
5.0,-2.0725000000000002,0.060208,32.23,,1660301213.503125,1
5.0,5.896666666666666,,,,1660301213.553125,1
5.0,11.703333333333333,,,,1660301213.603125,1
5.0,14.286666666666667,,,,1660301213.653125,1
5.0,10.813333333333333,,,,1660301213.703125,1
5.0,8.6425,0.06277,32.23,,1660301213.753125,1
5.0,7.016666666666667,,,,1660301213.803125,1
5.0,5.043333333333334,,,,1660301213.853125,1
5.0,2.5666666666666664,,,,1660301213.903125,1
5.0,-2.0933333333333333,,,,1660301213.953125,1
5.0,-9.5175,0.06277,32.23,,1660301214.003125,1
5.0,-8.61,,,,1660301214.053125,1
5.0,-0.2366666666666668,,,,1660301214.103125,1
5.0,4.9366666666666665,,,,1660301214.153125,1
5.0,6.866666666666667,,,,1660301214.203125,1
5.0,6.8275,0.064051,32.23,,1660301214.253125,1
5.0,7.266666666666667,,,,1660301214.303125,1
5.0,4.826666666666667,,,,1660301214.353125,1
5.0,-0.2933333333333333,,,,1660301214.403125,1
5.0,-1.72,,,,1660301214.453125,1
5.0,-3.8325000000000005,0.06277,32.23,,1660301214.503125,1
5.0,-9.443333333333333,,,,1660301214.553125,1
5.0,-14.776666666666666,,,,1660301214.603125,1
5.0,-22.923333333333332,,,,1660301214.653125,1
5.0,-30.916666666666668,,,,1660301214.703125,1
5.0,-23.634999999999998,0.061489,32.23,,1660301214.753125,1
5.0,7.323333333333333,,,,1660301214.803125,1
5.0,35.64333333333334,,,,1660301214.853125,1
5.0,57.38666666666666,,,,1660301214.903125,1
5.0,66.87,,,,1660301214.953125,1
5.0,56.6375,0.060208,32.23,,1660301215.003125,1
5.0,39.846666666666664,,,,1660301215.053125,1
5.0,23.293333333333333,,,,1660301215.103125,1
5.0,3.0700000000000003,,,,1660301215.153125,1
5.0,-21.596666666666668,,,,1660301215.203125,1
5.0,-30.727500000000003,0.061489,32.23,,1660301215.253125,1
5.0,-25.916666666666668,,,,1660301215.303125,1
5.0,-25.91,,,,1660301215.353125,1
5.0,-31.386666666666667,,,,1660301215.403125,1
5.0,-35.81999999999999,,,,1660301215.453125,1
5.0,-24.52,0.06277,32.23,,1660301215.503125,1
5.0,-15.083333333333334,,,,1660301215.553125,1
5.0,-8.656666666666666,,,,1660301215.603125,1
5.0,-2.6233333333333335,,,,1660301215.653125,1
5.0,-0.83,,,,1660301215.703125,1
5.0,5.8225,0.065332,32.23,,1660301215.753125,1
5.0,13.38,,,,1660301215.803125,1
5.0,16.883333333333336,,,,1660301215.853125,1
5.0,17.036666666666665,,,,1660301215.903125,1
5.0,13.253333333333336,,,,1660301215.953125,1
5.0,8.1925,0.06277,32.23,,1660301216.003125,1
5.0,3.5933333333333333,,,,1660301216.053125,1
5.0,-0.57,,,,1660301216.103125,1
5.0,-3.6166666666666667,,,,1660301216.153125,1
5.0,-1.9133333333333333,,,,1660301216.203125,1
5.0,4.2475000000000005,0.064051,32.21,,1660301216.253125,1
5.0,6.1866666666666665,,,,1660301216.303125,1
5.0,2.4033333333333333,,,,1660301216.353125,1
5.0,-1.8366666666666667,,,,1660301216.403125,1
5.0,-2.67,,,,1660301216.453125,1
5.0,-1.3225,0.064051,32.21,,1660301216.503125,1
5.0,-1.873333333333333,,,,1660301216.553125,1
5.0,-3.1566666666666667,,,,1660301216.603125,1
5.0,-7.073333333333333,,,,1660301216.653125,1
5.0,-14.893333333333333,,,,1660301216.703125,1
5.0,-22.927500000000002,0.061489,32.21,,1660301216.753125,1
5.0,-30.24,,,,1660301216.803125,1
5.0,-39.74,,,,1660301216.853125,1
5.0,-35.24666666666667,,,,1660301216.903125,1
5.0,-8.79,,,,1660301216.953125,1
5.0,20.78,0.061489,32.21,,1660301217.003125,1
5.0,40.233333333333334,,,,1660301217.053125,1
5.0,44.14000000000001,,,,1660301217.103125,1
5.0,36.339999999999996,,,,1660301217.153125,1
5.0,24.973333333333333,,,,1660301217.203125,1
5.0,12.902499999999998,0.06277,32.18,,1660301217.253125,1
5.0,4.0200000000000005,,,,1660301217.303125,1
5.0,0.3,,,,1660301217.353125,1
5.0,-0.8966666666666666,,,,1660301217.403125,1
5.0,-2.1333333333333333,,,,1660301217.453125,1
5.0,-7.3675,0.065332,32.18,,1660301217.503125,1
5.0,-17.400000000000002,,,,1660301217.553125,1
5.0,-24.683333333333334,,,,1660301217.603125,1
5.0,-24.506666666666664,,,,1660301217.653125,1
5.0,-13.536666666666667,,,,1660301217.703125,1
5.0,-0.5575000000000002,0.065332,32.18,,1660301217.753125,1
5.0,5.573333333333333,,,,1660301217.803125,1
5.0,9.450000000000001,,,,1660301217.853125,1
5.0,12.59666666666667,,,,1660301217.903125,1
5.0,15.780000000000001,,,,1660301217.953125,1
5.0,18.435,0.066613,32.18,,1660301218.003125,1
5.0,20.33,,,,1660301218.053125,1
5.0,19.28333333333333,,,,1660301218.103125,1
5.0,13.923333333333332,,,,1660301218.153125,1
5.0,6.983333333333333,,,,1660301218.203125,1
5.0,-1.7075,0.065332,32.18,,1660301218.253125,1
5.0,-10.943333333333333,,,,1660301218.303125,1
5.0,-11.413333333333334,,,,1660301218.353125,1
5.0,-3.4433333333333334,,,,1660301218.403125,1
5.0,1.8500000000000003,,,,1660301218.453125,1
5.0,2.7525,0.06277,32.18,,1660301218.503125,1
5.0,4.203333333333333,,,,1660301218.553125,1
5.0,6.590000000000001,,,,1660301218.603125,1
5.0,8.31,,,,1660301218.653125,1
5.0,7.45,,,,1660301218.703125,1
5.0,5.2775,0.06277,32.18,,1660301218.753125,1
5.0,3.0733333333333337,,,,1660301218.803125,1
5.0,0.13999999999999993,,,,1660301218.853125,1
5.0,-3.383333333333333,,,,1660301218.903125,1
5.0,-8.313333333333333,,,,1660301218.953125,1
5.0,-15.3525,0.06277,32.18,,1660301219.003125,1
5.0,-17.540000000000003,,,,1660301219.053125,1
5.0,-12.206666666666665,,,,1660301219.103125,1
5.0,-8.376666666666667,,,,1660301219.153125,1
5.0,-6.413333333333333,,,,1660301219.203125,1
5.0,-4.0675,0.06277,32.21,,1660301219.253125,1
5.0,-3.6966666666666668,,,,1660301219.303125,1
5.0,-3.03,,,,1660301219.353125,1
5.0,-3.6466666666666665,,,,1660301219.403125,1
5.0,-5.1000000000000005,,,,1660301219.453125,1
5.0,-4.185,0.065332,32.21,,1660301219.503125,1
5.0,-5.846666666666667,,,,1660301219.553125,1
5.0,-7.859999999999999,,,,1660301219.603125,1
5.0,-6.8066666666666675,,,,1660301219.653125,1
5.0,-7.493333333333333,,,,1660301219.703125,1
5.0,-6.767500000000001,0.065332,32.21,,1660301219.753125,1
5.0,1.92,,,,1660301219.803125,1
5.0,9.273333333333333,,,,1660301219.853125,1
5.0,12.166666666666666,,,,1660301219.903125,1
5.0,18.156666666666666,,,,1660301219.953125,1
5.0,28.48,0.065332,32.21,,1660301220.003125,1
5.0,28.746666666666666,,,,1660301220.053125,1
5.0,25.226666666666663,,,,1660301220.103125,1
5.0,19.44666666666667,,,,1660301220.153125,1
5.0,8.0,,,,1660301220.203125,1
5.0,-0.37999999999999995,0.06277,32.21,,1660301220.253125,1
5.0,-5.306666666666667,,,,1660301220.303125,1
5.0,-8.589999999999998,,,,1660301220.353125,1
5.0,-13.5,,,,1660301220.403125,1
5.0,-21.633333333333336,,,,1660301220.453125,1
5.0,-23.2325,0.061489,32.21,,1660301220.503125,1
5.0,-15.840000000000002,,,,1660301220.553125,1
5.0,-6.483333333333333,,,,1660301220.603125,1
5.0,-1.4133333333333333,,,,1660301220.653125,1
5.0,-1.27,,,,1660301220.703125,1
5.0,-0.18000000000000005,0.061489,32.21,,1660301220.753125,1
5.0,3.9299999999999997,,,,1660301220.803125,1
5.0,3.453333333333333,,,,1660301220.853125,1
5.0,2.26,,,,1660301220.903125,1
5.0,1.2466666666666668,,,,1660301220.953125,1
5.0,-4.03,0.061489,32.21,,1660301221.003125,1
5.0,-7.81,,,,1660301221.053125,1
5.0,-9.076666666666668,,,,1660301221.103125,1
5.0,-10.03,,,,1660301221.153125,1
5.0,-13.493333333333332,,,,1660301221.203125,1
5.0,-8.254999999999999,0.060208,32.21,,1660301221.253125,1
5.0,3.1366666666666667,,,,1660301221.303125,1
5.0,5.776666666666667,,,,1660301221.353125,1
5.0,6.806666666666666,,,,1660301221.403125,1
5.0,6.763333333333333,,,,1660301221.453125,1
5.0,4.4675,0.064051,32.21,,1660301221.503125,1
5.0,1.5933333333333335,,,,1660301221.553125,1
5.0,0.19000000000000003,,,,1660301221.603125,1
5.0,1.2266666666666666,,,,1660301221.653125,1
5.0,-0.3999999999999999,,,,1660301221.703125,1
5.0,-8.07,0.064051,32.21,,1660301221.753125,1
5.0,-15.423333333333332,,,,1660301221.803125,1
5.0,-19.19333333333333,,,,1660301221.853125,1
5.0,-22.686666666666667,,,,1660301221.903125,1
5.0,-25.77333333333333,,,,1660301221.953125,1
5.0,-21.262499999999996,0.064051,32.21,,1660301222.003125,1
5.0,-11.406666666666666,,,,1660301222.053125,1
5.0,-4.81,,,,1660301222.103125,1
5.0,3.7366666666666664,,,,1660301222.153125,1
5.0,15.229999999999999,,,,1660301222.203125,1
5.0,26.3325,0.064051,32.21,,1660301222.253125,1
5.0,32.72,,,,1660301222.303125,1
5.0,33.193333333333335,,,,1660301222.353125,1
5.0,32.14666666666667,,,,1660301222.403125,1
5.0,29.613333333333333,,,,1660301222.453125,1
5.0,21.48,0.061489,32.21,,1660301222.503125,1
5.0,16.21666666666667,,,,1660301222.553125,1
5.0,11.546666666666667,,,,1660301222.603125,1
5.0,2.66,,,,1660301222.653125,1
5.0,-6.846666666666667,,,,1660301222.703125,1
5.0,-10.084999999999999,0.061489,32.21,,1660301222.753125,1
5.0,-5.686666666666667,,,,1660301222.803125,1
5.0,-3.703333333333333,,,,1660301222.853125,1
5.0,-1.6033333333333333,,,,1660301222.903125,1
5.0,-0.6933333333333334,,,,1660301222.953125,1
5.0,-1.2950000000000002,0.061489,32.21,,1660301223.003125,1
5.0,-2.283333333333333,,,,1660301223.053125,1
5.0,-4.446666666666666,,,,1660301223.103125,1
5.0,-6.739999999999999,,,,1660301223.153125,1
5.0,-11.076666666666668,,,,1660301223.203125,1
5.0,-13.927500000000002,0.061489,32.18,,1660301223.253125,1
5.0,-12.906666666666666,,,,1660301223.303125,1
5.0,-13.413333333333332,,,,1660301223.353125,1
5.0,-14.280000000000001,,,,1660301223.403125,1
5.0,-8.556666666666667,,,,1660301223.453125,1
5.0,1.7049999999999998,0.065332,32.18,,1660301223.503125,1
5.0,5.6499999999999995,,,,1660301223.553125,1
5.0,5.913333333333334,,,,1660301223.603125,1
5.0,4.28,,,,1660301223.653125,1
5.0,2.526666666666667,,,,1660301223.703125,1
5.0,-0.3450000000000001,0.065332,32.18,,1660301223.753125,1
5.0,-3.84,,,,1660301223.803125,1
5.0,-4.863333333333333,,,,1660301223.853125,1
5.0,-7.900000000000001,,,,1660301223.903125,1
5.0,-12.553333333333333,,,,1660301223.953125,1
5.0,-18.4225,0.066613,32.18,,1660301224.003125,1
5.0,-26.673333333333332,,,,1660301224.053125,1
5.0,-33.98666666666667,,,,1660301224.103125,1
5.0,-31.310000000000002,,,,1660301224.153125,1
5.0,-11.839999999999998,,,,1660301224.203125,1
5.0,10.1225,0.064051,32.21,,1660301224.253125,1
5.0,21.95,,,,1660301224.303125,1
5.0,25.183333333333334,,,,1660301224.353125,1
5.0,26.086666666666662,,,,1660301224.403125,1
5.0,30.836666666666662,,,,1660301224.453125,1
5.0,32.21,0.06277,32.21,,1660301224.503125,1
5.0,25.439999999999998,,,,1660301224.553125,1
5.0,24.66333333333333,,,,1660301224.603125,1
5.0,22.439999999999998,,,,1660301224.653125,1
5.0,9.72,,,,1660301224.703125,1
5.0,0.3975,0.06277,32.21,,1660301224.753125,1
5.0,-3.766666666666667,,,,1660301224.803125,1
5.0,-10.17,,,,1660301224.853125,1
5.0,-11.49,,,,1660301224.903125,1
5.0,-6.7,,,,1660301224.953125,1
5.0,-3.6375,0.06277,32.21,,1660301225.003125,1
5.0,-0.8433333333333334,,,,1660301225.053125,1
5.0,-0.26,,,,1660301225.103125,1
5.0,0.34,,,,1660301225.153125,1
5.0,1.0233333333333334,,,,1660301225.203125,1
5.0,0.5900000000000001,0.065332,32.21,,1660301225.253125,1
5.0,2.2133333333333334,,,,1660301225.303125,1
5.0,2.3766666666666665,,,,1660301225.353125,1
5.0,0.7000000000000001,,,,1660301225.403125,1
5.0,-1.1033333333333333,,,,1660301225.453125,1
5.0,-7.5675,0.065332,32.21,,1660301225.503125,1
5.0,-16.293333333333333,,,,1660301225.553125,1
5.0,-14.943333333333333,,,,1660301225.603125,1
5.0,-7.633333333333333,,,,1660301225.653125,1
5.0,-2.866666666666667,,,,1660301225.703125,1
5.0,-1.5625,0.065332,32.21,,1660301225.753125,1
5.0,-0.9366666666666666,,,,1660301225.803125,1
5.0,1.3066666666666666,,,,1660301225.853125,1
5.0,4.6866666666666665,,,,1660301225.903125,1
5.0,5.116666666666667,,,,1660301225.953125,1
5.0,4.3525,0.065332,32.21,,1660301226.003125,1
5.0,0.16666666666666674,,,,1660301226.053125,1
5.0,-5.713333333333334,,,,1660301226.103125,1
5.0,-9.883333333333333,,,,1660301226.153125,1
5.0,-14.736666666666666,,,,1660301226.203125,1
5.0,-19.200000000000003,0.064051,32.21,,1660301226.253125,1
5.0,-16.513333333333335,,,,1660301226.303125,1
5.0,-7.55,,,,1660301226.353125,1
5.0,-0.2666666666666668,,,,1660301226.403125,1
5.0,5.846666666666667,,,,1660301226.453125,1
5.0,10.3675,0.06277,32.21,,1660301226.503125,1
5.0,9.723333333333334,,,,1660301226.553125,1
5.0,9.736666666666666,,,,1660301226.603125,1
5.0,7.416666666666667,,,,1660301226.653125,1
5.0,5.763333333333333,,,,1660301226.703125,1
5.0,4.387499999999999,0.061489,32.21,,1660301226.753125,1
5.0,-0.24,,,,1660301226.803125,1
5.0,-3.5499999999999994,,,,1660301226.853125,1
5.0,-5.19,,,,1660301226.903125,1
5.0,-7.913333333333334,,,,1660301226.953125,1
5.0,-9.8975,0.06277,32.21,,1660301227.003125,1
5.0,-0.83,,,,1660301227.053125,1
5.0,8.606666666666667,,,,1660301227.103125,1
5.0,11.99,,,,1660301227.153125,1
5.0,13.686666666666667,,,,1660301227.203125,1
5.0,14.887500000000001,0.061489,32.16,,1660301227.253125,1
5.0,13.323333333333332,,,,1660301227.303125,1
5.0,10.590000000000002,,,,1660301227.353125,1
5.0,7.509999999999999,,,,1660301227.403125,1
5.0,3.94,,,,1660301227.453125,1
5.0,-1.455,0.064051,32.16,,1660301227.503125,1
5.0,-5.3066666666666675,,,,1660301227.553125,1
5.0,-7.833333333333333,,,,1660301227.603125,1
5.0,-11.563333333333333,,,,1660301227.653125,1
5.0,-13.093333333333334,,,,1660301227.703125,1
5.0,-8.305,0.065332,32.16,,1660301227.753125,1
5.0,0.5766666666666668,,,,1660301227.803125,1
5.0,4.91,,,,1660301227.853125,1
5.0,6.236666666666667,,,,1660301227.903125,1
5.0,5.953333333333333,,,,1660301227.953125,1
5.0,4.84,0.065332,32.16,,1660301228.003125,1
5.0,7.103333333333334,,,,1660301228.053125,1
5.0,9.683333333333334,,,,1660301228.103125,1
5.0,10.046666666666667,,,,1660301228.153125,1
5.0,6.9433333333333325,,,,1660301228.203125,1
5.0,0.18249999999999988,0.06277,32.18,,1660301228.253125,1
5.0,-5.3933333333333335,,,,1660301228.303125,1
5.0,-10.09,,,,1660301228.353125,1
5.0,-15.540000000000001,,,,1660301228.403125,1
5.0,-15.636666666666665,,,,1660301228.453125,1
5.0,-7.42,0.060208,32.18,,1660301228.503125,1
5.0,-0.3833333333333333,,,,1660301228.553125,1
5.0,2.1500000000000004,,,,1660301228.603125,1
5.0,2.1300000000000003,,,,1660301228.653125,1
5.0,0.9766666666666667,,,,1660301228.703125,1
5.0,2.02,0.06277,32.18,,1660301228.753125,1
5.0,2.17,,,,1660301228.803125,1
5.0,3.03,,,,1660301228.853125,1
5.0,3.68,,,,1660301228.903125,1
5.0,2.6366666666666667,,,,1660301228.953125,1
5.0,0.0025000000000000577,0.061489,32.18,,1660301229.003125,1
5.0,-3.373333333333333,,,,1660301229.053125,1
5.0,-8.826666666666666,,,,1660301229.103125,1
5.0,-14.983333333333334,,,,1660301229.153125,1
5.0,-16.636666666666667,,,,1660301229.203125,1
5.0,-9.877500000000001,0.064051,32.18,,1660301229.253125,1
5.0,-2.6933333333333334,,,,1660301229.303125,1
5.0,6.003333333333333,,,,1660301229.353125,1
5.0,17.363333333333333,,,,1660301229.403125,1
5.0,24.173333333333332,,,,1660301229.453125,1
5.0,27.554999999999996,0.065332,32.18,,1660301229.503125,1
5.0,31.396666666666665,,,,1660301229.553125,1
5.0,33.97666666666667,,,,1660301229.603125,1
5.0,22.156666666666666,,,,1660301229.653125,1
5.0,2.0166666666666666,,,,1660301229.703125,1
5.0,-6.41,0.065332,32.18,,1660301229.753125,1
5.0,-11.366666666666665,,,,1660301229.803125,1
5.0,-20.16,,,,1660301229.853125,1
5.0,-34.96666666666667,,,,1660301229.903125,1
5.0,-36.440000000000005,,,,1660301229.953125,1
5.0,-21.97,0.065332,32.18,,1660301230.003125,1
5.0,-11.866666666666667,,,,1660301230.053125,1
5.0,-3.81,,,,1660301230.103125,1
5.0,1.3,,,,1660301230.153125,1
5.0,5.286666666666666,,,,1660301230.203125,1
5.0,11.785,0.06277,32.18,,1660301230.253125,1
5.0,13.693333333333333,,,,1660301230.303125,1
5.0,10.93,,,,1660301230.353125,1
5.0,6.136666666666667,,,,1660301230.403125,1
5.0,2.11,,,,1660301230.453125,1
5.0,-0.58,0.061489,32.18,,1660301230.503125,1
5.0,-6.19,,,,1660301230.553125,1
5.0,-12.603333333333333,,,,1660301230.603125,1
5.0,-12.076666666666668,,,,1660301230.653125,1
5.0,-4.1066666666666665,,,,1660301230.703125,1
5.0,3.4225000000000003,0.06277,32.18,,1660301230.753125,1
5.0,7.0,,,,1660301230.803125,1
5.0,6.039999999999999,,,,1660301230.853125,1
5.0,4.126666666666667,,,,1660301230.903125,1
5.0,2.7699999999999996,,,,1660301230.953125,1
5.0,2.4575,0.078142,32.18,,1660301231.003125,1
5.0,3.15,,,,1660301231.053125,1
5.0,2.7099999999999995,,,,1660301231.103125,1
5.0,0.2866666666666667,,,,1660301231.153125,1
5.0,-5.573333333333333,,,,1660301231.203125,1
5.0,-12.6125,0.061489,32.18,,1660301231.253125,1
5.0,-19.133333333333336,,,,1660301231.303125,1
5.0,-25.789999999999996,,,,1660301231.353125,1
5.0,-25.346666666666664,,,,1660301231.403125,1
5.0,-17.516666666666666,,,,1660301231.453125,1
5.0,-8.2175,0.065332,32.18,,1660301231.503125,1
5.0,4.276666666666666,,,,1660301231.553125,1
5.0,15.066666666666668,,,,1660301231.603125,1
5.0,19.790000000000003,,,,1660301231.653125,1
5.0,20.886666666666667,,,,1660301231.703125,1
5.0,21.1875,0.066613,32.18,,1660301231.753125,1
5.0,16.973333333333333,,,,1660301231.803125,1
5.0,12.386666666666665,,,,1660301231.853125,1
5.0,9.523333333333333,,,,1660301231.903125,1
5.0,5.666666666666667,,,,1660301231.953125,1
5.0,-0.5674999999999999,0.064051,32.18,,1660301232.003125,1
5.0,-6.43,,,,1660301232.053125,1
5.0,-13.153333333333334,,,,1660301232.103125,1
5.0,-19.50666666666667,,,,1660301232.153125,1
5.0,-17.496666666666666,,,,1660301232.203125,1
5.0,-7.23,0.064051,32.18,,1660301232.253125,1
5.0,-1.3800000000000001,,,,1660301232.303125,1
5.0,-0.71,,,,1660301232.353125,1
5.0,-1.4533333333333331,,,,1660301232.403125,1
5.0,1.7233333333333334,,,,1660301232.453125,1
5.0,7.765000000000001,0.06277,32.18,,1660301232.503125,1
5.0,8.213333333333333,,,,1660301232.553125,1
5.0,6.703333333333333,,,,1660301232.603125,1
5.0,4.5,,,,1660301232.653125,1
5.0,2.6999999999999997,,,,1660301232.703125,1
5.0,1.9899999999999998,0.061489,32.18,,1660301232.753125,1
5.0,-2.973333333333333,,,,1660301232.803125,1
5.0,-9.773333333333333,,,,1660301232.853125,1
5.0,-10.729999999999999,,,,1660301232.903125,1
5.0,-3.3800000000000003,,,,1660301232.953125,1
5.0,4.2775,0.061489,32.18,,1660301233.003125,1
5.0,7.473333333333334,,,,1660301233.053125,1
5.0,8.706666666666665,,,,1660301233.103125,1
5.0,7.923333333333333,,,,1660301233.153125,1
5.0,5.78,,,,1660301233.203125,1
5.0,4.194999999999999,0.061489,32.16,,1660301233.253125,1
5.0,4.07,,,,1660301233.303125,1
5.0,1.4799999999999998,,,,1660301233.353125,1
5.0,-3.7433333333333336,,,,1660301233.403125,1
5.0,-8.549999999999999,,,,1660301233.453125,1
5.0,-14.96,0.065332,32.16,,1660301233.503125,1
5.0,-22.30666666666667,,,,1660301233.553125,1
5.0,-23.02666666666667,,,,1660301233.603125,1
5.0,-11.223333333333334,,,,1660301233.653125,1
5.0,1.9066666666666665,,,,1660301233.703125,1
5.0,8.6725,0.064051,32.16,,1660301233.753125,1
5.0,13.839999999999998,,,,1660301233.803125,1
5.0,21.623333333333335,,,,1660301233.853125,1
5.0,20.926666666666666,,,,1660301233.903125,1
5.0,9.453333333333333,,,,1660301233.953125,1
5.0,7.4,0.064051,32.16,,1660301234.003125,1
5.0,10.756666666666666,,,,1660301234.053125,1
5.0,8.873333333333333,,,,1660301234.103125,1
5.0,2.6433333333333335,,,,1660301234.153125,1
5.0,-1.2966666666666666,,,,1660301234.203125,1
5.0,-1.9499999999999997,0.065332,32.18,,1660301234.253125,1
5.0,-9.03,,,,1660301234.303125,1
5.0,-15.613333333333335,,,,1660301234.353125,1
5.0,-11.719999999999999,,,,1660301234.403125,1
5.0,-2.83,,,,1660301234.453125,1
5.0,1.16,0.064051,32.18,,1660301234.503125,1
5.0,2.706666666666667,,,,1660301234.553125,1
5.0,2.5733333333333333,,,,1660301234.603125,1
5.0,2.8233333333333337,,,,1660301234.653125,1
5.0,4.213333333333334,,,,1660301234.703125,1
5.0,3.1024999999999996,0.06277,32.18,,1660301234.753125,1
5.0,3.39,,,,1660301234.803125,1
5.0,2.67,,,,1660301234.853125,1
5.0,0.18666666666666668,,,,1660301234.903125,1
5.0,-0.9133333333333334,,,,1660301234.953125,1
5.0,-4.445,0.064051,32.18,,1660301235.003125,1
5.0,-12.043333333333335,,,,1660301235.053125,1
5.0,-12.0,,,,1660301235.103125,1
5.0,-2.3400000000000003,,,,1660301235.153125,1
5.0,4.33,,,,1660301235.203125,1
5.0,5.9125,0.06277,32.15,,1660301235.253125,1
5.0,5.413333333333333,,,,1660301235.303125,1
5.0,3.733333333333334,,,,1660301235.353125,1
5.0,1.8633333333333333,,,,1660301235.403125,1
5.0,-1.3,,,,1660301235.453125,1
5.0,-4.335,0.065332,32.15,,1660301235.503125,1
5.0,-6.8566666666666665,,,,1660301235.553125,1
5.0,-8.87,,,,1660301235.603125,1
5.0,-10.946666666666667,,,,1660301235.653125,1
5.0,-13.323333333333332,,,,1660301235.703125,1
5.0,-13.7975,0.065332,32.15,,1660301235.753125,1
5.0,-9.723333333333334,,,,1660301235.803125,1
5.0,-2.1133333333333333,,,,1660301235.853125,1
5.0,5.170000000000001,,,,1660301235.903125,1
5.0,12.743333333333334,,,,1660301235.953125,1
5.0,16.5675,0.067894,32.15,,1660301236.003125,1
5.0,17.099999999999998,,,,1660301236.053125,1
5.0,19.97666666666667,,,,1660301236.103125,1
5.0,21.39,,,,1660301236.153125,1
5.0,18.706666666666667,,,,1660301236.203125,1
5.0,14.245000000000001,0.066613,32.16,,1660301236.253125,1
5.0,9.853333333333333,,,,1660301236.303125,1
5.0,3.566666666666667,,,,1660301236.353125,1
5.0,-1.5999999999999999,,,,1660301236.403125,1
5.0,-6.433333333333334,,,,1660301236.453125,1
5.0,-11.3375,0.065332,32.16,,1660301236.503125,1
5.0,-10.916666666666666,,,,1660301236.553125,1
5.0,-2.603333333333333,,,,1660301236.603125,1
5.0,1.7133333333333336,,,,1660301236.653125,1
5.0,1.12,,,,1660301236.703125,1
5.0,2.0675,0.064051,32.16,,1660301236.753125,1
5.0,1.2233333333333334,,,,1660301236.803125,1
5.0,2.1666666666666665,,,,1660301236.853125,1
5.0,4.146666666666667,,,,1660301236.903125,1
5.0,4.626666666666667,,,,1660301236.953125,1
5.0,1.815,0.06277,32.16,,1660301237.003125,1
5.0,-1.8366666666666667,,,,1660301237.053125,1
5.0,-6.213333333333334,,,,1660301237.103125,1
5.0,-9.816666666666666,,,,1660301237.153125,1
5.0,-10.346666666666666,,,,1660301237.203125,1
5.0,-12.0575,0.06277,32.15,,1660301237.253125,1
5.0,-14.313333333333333,,,,1660301237.303125,1
5.0,-9.469999999999999,,,,1660301237.353125,1
5.0,-1.96,,,,1660301237.403125,1
5.0,1.7599999999999998,,,,1660301237.453125,1
5.0,3.765,0.064051,32.15,,1660301237.503125,1
5.0,2.6833333333333336,,,,1660301237.553125,1
5.0,2.6300000000000003,,,,1660301237.603125,1
5.0,4.36,,,,1660301237.653125,1
5.0,2.98,,,,1660301237.703125,1
5.0,0.42750000000000005,0.066613,32.15,,1660301237.753125,1
5.0,-1.8233333333333333,,,,1660301237.803125,1
5.0,-2.5266666666666664,,,,1660301237.853125,1
5.0,-2.5766666666666667,,,,1660301237.903125,1
5.0,-4.663333333333333,,,,1660301237.953125,1
5.0,-7.5725,0.066613,32.15,,1660301238.003125,1
5.0,-6.706666666666667,,,,1660301238.053125,1
5.0,1.5333333333333332,,,,1660301238.103125,1
5.0,12.856666666666667,,,,1660301238.153125,1
5.0,20.77,,,,1660301238.203125,1
5.0,11.267500000000002,0.065332,32.16,,1660301238.253125,1
5.0,1.2666666666666666,,,,1660301238.303125,1
5.0,6.696666666666666,,,,1660301238.353125,1
5.0,12.156666666666666,,,,1660301238.403125,1
5.0,10.193333333333333,,,,1660301238.453125,1
5.0,1.8800000000000001,0.065332,32.16,,1660301238.503125,1
5.0,-3.9599999999999995,,,,1660301238.553125,1
5.0,-6.786666666666666,,,,1660301238.603125,1
5.0,-9.08,,,,1660301238.653125,1
5.0,-10.256666666666668,,,,1660301238.703125,1
5.0,-14.0625,0.06277,32.16,,1660301238.753125,1
5.0,-18.88,,,,1660301238.803125,1
5.0,-10.813333333333333,,,,1660301238.853125,1
5.0,0.6133333333333334,,,,1660301238.903125,1
5.0,3.8166666666666664,,,,1660301238.953125,1
5.0,5.305,0.06277,32.16,,1660301239.003125,1
5.0,6.87,,,,1660301239.053125,1
5.0,5.346666666666667,,,,1660301239.103125,1
5.0,5.173333333333333,,,,1660301239.153125,1
5.0,5.173333333333333,,,,1660301239.203125,1
5.0,4.5375000000000005,0.06277,32.16,,1660301239.253125,1
5.0,5.303333333333334,,,,1660301239.303125,1
5.0,4.026666666666666,,,,1660301239.353125,1
5.0,0.8733333333333334,,,,1660301239.403125,1
5.0,-3.4766666666666666,,,,1660301239.453125,1
5.0,-7.547499999999999,0.06277,32.16,,1660301239.503125,1
5.0,-12.156666666666666,,,,1660301239.553125,1
5.0,-12.403333333333334,,,,1660301239.603125,1
5.0,-4.4799999999999995,,,,1660301239.653125,1
5.0,2.15,,,,1660301239.703125,1
5.0,5.5275,0.066613,32.16,,1660301239.753125,1
5.0,6.8933333333333335,,,,1660301239.803125,1
5.0,13.12,,,,1660301239.853125,1
5.0,22.22,,,,1660301239.903125,1
5.0,22.96666666666667,,,,1660301239.953125,1
5.0,25.4825,0.066613,32.16,,1660301240.003125,1
5.0,32.60333333333333,,,,1660301240.053125,1
5.0,28.11,,,,1660301240.103125,1
5.0,8.153333333333334,,,,1660301240.153125,1
5.0,-8.74,,,,1660301240.203125,1
5.0,-20.4625,0.065332,32.16,,1660301240.253125,1
5.0,-34.46333333333334,,,,1660301240.303125,1
5.0,-40.17,,,,1660301240.353125,1
5.0,-35.68666666666666,,,,1660301240.403125,1
5.0,-25.366666666666664,,,,1660301240.453125,1
5.0,-13.625,0.066613,32.16,,1660301240.503125,1
5.0,-5.97,,,,1660301240.553125,1
5.0,-1.946666666666667,,,,1660301240.603125,1
5.0,3.6666666666666665,,,,1660301240.653125,1
5.0,7.016666666666667,,,,1660301240.703125,1
5.0,8.955,0.06277,32.16,,1660301240.753125,1
5.0,8.15,,,,1660301240.803125,1
5.0,4.336666666666667,,,,1660301240.853125,1
5.0,2.5233333333333334,,,,1660301240.903125,1
5.0,-0.9266666666666667,,,,1660301240.953125,1
5.0,-6.1049999999999995,0.06277,32.16,,1660301241.003125,1
5.0,-7.826666666666667,,,,1660301241.053125,1
5.0,-3.643333333333333,,,,1660301241.103125,1
5.0,1.9833333333333334,,,,1660301241.153125,1
5.0,3.1033333333333335,,,,1660301241.203125,1
5.0,2.71,0.06277,32.18,,1660301241.253125,1
5.0,2.796666666666667,,,,1660301241.303125,1
5.0,4.293333333333333,,,,1660301241.353125,1
5.0,3.6300000000000003,,,,1660301241.403125,1
5.0,1.5166666666666666,,,,1660301241.453125,1
5.0,-2.0425,0.061489,32.18,,1660301241.503125,1
5.0,-5.286666666666666,,,,1660301241.553125,1
5.0,-8.566666666666666,,,,1660301241.603125,1
5.0,-10.656666666666666,,,,1660301241.653125,1
5.0,-11.843333333333334,,,,1660301241.703125,1
5.0,-17.58,0.065332,32.18,,1660301241.753125,1
5.0,-17.71,,,,1660301241.803125,1
5.0,-5.97,,,,1660301241.853125,1
5.0,11.323333333333332,,,,1660301241.903125,1
5.0,24.05,,,,1660301241.953125,1
5.0,24.0475,0.066613,32.18,,1660301242.003125,1
5.0,20.82,,,,1660301242.053125,1
5.0,21.093333333333334,,,,1660301242.103125,1
5.0,18.993333333333336,,,,1660301242.153125,1
5.0,15.833333333333334,,,,1660301242.203125,1
5.0,11.8675,0.066613,32.16,,1660301242.253125,1
5.0,1.9366666666666668,,,,1660301242.303125,1
5.0,-8.366666666666667,,,,1660301242.353125,1
5.0,-1.6666666666666663,,,,1660301242.403125,1
5.0,6.150000000000001,,,,1660301242.453125,1
5.0,-11.91,0.065332,32.16,,1660301242.503125,1
5.0,-37.20666666666667,,,,1660301242.553125,1
5.0,-38.09,,,,1660301242.603125,1
5.0,-22.73,,,,1660301242.653125,1
5.0,-13.816666666666668,,,,1660301242.703125,1
5.0,-8.39,0.064051,32.16,,1660301242.753125,1
5.0,-3.2600000000000002,,,,1660301242.803125,1
5.0,1.9866666666666666,,,,1660301242.853125,1
5.0,6.723333333333334,,,,1660301242.903125,1
5.0,7.253333333333333,,,,1660301242.953125,1
5.0,6.85,0.064051,32.16,,1660301243.003125,1
5.0,5.316666666666666,,,,1660301243.053125,1
5.0,2.99,,,,1660301243.103125,1
5.0,0.88,,,,1660301243.153125,1
5.0,-2.44,,,,1660301243.203125,1
5.0,-8.0775,0.061489,32.16,,1660301243.253125,1
5.0,-8.043333333333335,,,,1660301243.303125,1
5.0,-1.9166666666666667,,,,1660301243.353125,1
5.0,1.8866666666666667,,,,1660301243.403125,1
5.0,4.25,,,,1660301243.453125,1
5.0,5.9575,0.061489,32.16,,1660301243.503125,1
5.0,6.603333333333334,,,,1660301243.553125,1
5.0,6.400000000000001,,,,1660301243.603125,1
5.0,4.55,,,,1660301243.653125,1
5.0,4.013333333333333,,,,1660301243.703125,1
5.0,3.8125,0.064051,32.16,,1660301243.753125,1
5.0,-0.5099999999999999,,,,1660301243.803125,1
5.0,-1.4966666666666668,,,,1660301243.853125,1
5.0,-3.033333333333333,,,,1660301243.903125,1
5.0,-7.97,,,,1660301243.953125,1
5.0,-11.8975,0.064051,32.16,,1660301244.003125,1
5.0,-8.393333333333333,,,,1660301244.053125,1
5.0,-3.66,,,,1660301244.103125,1
5.0,-2.9066666666666663,,,,1660301244.153125,1
5.0,-1.3966666666666665,,,,1660301244.203125,1
5.0,1.8975,0.064051,32.16,,1660301244.253125,1
5.0,4.446666666666666,,,,1660301244.303125,1
5.0,4.956666666666667,,,,1660301244.353125,1
5.0,5.843333333333334,,,,1660301244.403125,1
5.0,7.113333333333333,,,,1660301244.453125,1
5.0,3.4074999999999998,0.06277,32.16,,1660301244.503125,1
5.0,-2.59,,,,1660301244.553125,1
5.0,-5.576666666666667,,,,1660301244.603125,1
5.0,-7.1000000000000005,,,,1660301244.653125,1
5.0,-10.046666666666667,,,,1660301244.703125,1
5.0,-11.965,0.06277,32.16,,1660301244.753125,1
5.0,-4.430000000000001,,,,1660301244.803125,1
5.0,4.346666666666667,,,,1660301244.853125,1
5.0,6.936666666666667,,,,1660301244.903125,1
5.0,4.093333333333333,,,,1660301244.953125,1
5.0,2.915,0.064051,32.16,,1660301245.003125,1
5.0,7.756666666666667,,,,1660301245.053125,1
5.0,9.476666666666667,,,,1660301245.103125,1
5.0,9.153333333333334,,,,1660301245.153125,1
5.0,8.916666666666666,,,,1660301245.203125,1
5.0,3.275,0.06277,32.16,,1660301245.253125,1
5.0,-2.19,,,,1660301245.303125,1
5.0,-5.1466666666666665,,,,1660301245.353125,1
5.0,-8.593333333333334,,,,1660301245.403125,1
5.0,-11.39,,,,1660301245.453125,1
5.0,-6.8425,0.06277,32.16,,1660301245.503125,1
5.0,1.54,,,,1660301245.553125,1
5.0,1.4366666666666668,,,,1660301245.603125,1
5.0,2.1,,,,1660301245.653125,1
5.0,5.666666666666667,,,,1660301245.703125,1
5.0,7.6575,0.066613,32.16,,1660301245.753125,1
5.0,7.573333333333333,,,,1660301245.803125,1
5.0,7.153333333333333,,,,1660301245.853125,1
5.0,5.12,,,,1660301245.903125,1
5.0,2.3633333333333333,,,,1660301245.953125,1
5.0,-1.5624999999999998,0.066613,32.16,,1660301246.003125,1
5.0,-2.5666666666666664,,,,1660301246.053125,1
5.0,-0.64,,,,1660301246.103125,1
5.0,-0.31666666666666665,,,,1660301246.153125,1
5.0,-3.17,,,,1660301246.203125,1
5.0,-2.55,0.064051,32.16,,1660301246.253125,1
5.0,4.206666666666667,,,,1660301246.303125,1
5.0,6.723333333333333,,,,1660301246.353125,1
5.0,6.239999999999999,,,,1660301246.403125,1
5.0,4.7,,,,1660301246.453125,1
5.0,2.0675,0.064051,32.16,,1660301246.503125,1
5.0,-0.34,,,,1660301246.553125,1
5.0,0.2733333333333334,,,,1660301246.603125,1
5.0,-0.3066666666666667,,,,1660301246.653125,1
5.0,-3.4299999999999997,,,,1660301246.703125,1
5.0,-6.96,0.06277,32.16,,1660301246.753125,1
5.0,-9.263333333333334,,,,1660301246.803125,1
5.0,-11.836666666666666,,,,1660301246.853125,1
5.0,-14.426666666666668,,,,1660301246.903125,1
5.0,-14.25,,,,1660301246.953125,1
5.0,-12.799999999999999,0.061489,32.16,,1660301247.003125,1
5.0,-4.743333333333333,,,,1660301247.053125,1
5.0,8.046666666666667,,,,1660301247.103125,1
5.0,12.923333333333332,,,,1660301247.153125,1
5.0,6.72,,,,1660301247.203125,1
5.0,-0.485,0.061489,32.16,,1660301247.253125,1
5.0,1.78,,,,1660301247.303125,1
5.0,8.683333333333332,,,,1660301247.353125,1
5.0,9.863333333333333,,,,1660301247.403125,1
5.0,7.510000000000001,,,,1660301247.453125,1
5.0,5.489999999999999,0.060208,32.16,,1660301247.503125,1
5.0,0.09666666666666668,,,,1660301247.553125,1
5.0,-2.7133333333333334,,,,1660301247.603125,1
5.0,-5.196666666666666,,,,1660301247.653125,1
5.0,-7.613333333333333,,,,1660301247.703125,1
5.0,-10.5175,0.065332,32.16,,1660301247.753125,1
5.0,-11.486666666666666,,,,1660301247.803125,1
5.0,-4.566666666666666,,,,1660301247.853125,1
5.0,4.1033333333333335,,,,1660301247.903125,1
5.0,6.88,,,,1660301247.953125,1
5.0,5.9425,0.065332,32.16,,1660301248.003125,1
5.0,3.983333333333333,,,,1660301248.053125,1
5.0,6.166666666666667,,,,1660301248.103125,1
5.0,7.113333333333333,,,,1660301248.153125,1
5.0,4.973333333333334,,,,1660301248.203125,1
5.0,3.2775,0.066613,32.13,,1660301248.253125,1
5.0,0.7633333333333332,,,,1660301248.303125,1
5.0,-1.6166666666666665,,,,1660301248.353125,1
5.0,-2.4966666666666666,,,,1660301248.403125,1
5.0,-2.9233333333333333,,,,1660301248.453125,1
5.0,-2.945,0.064051,32.13,,1660301248.503125,1
5.0,-5.3933333333333335,,,,1660301248.553125,1
5.0,-11.280000000000001,,,,1660301248.603125,1
5.0,-10.716666666666667,,,,1660301248.653125,1
5.0,-2.1599999999999997,,,,1660301248.703125,1
5.0,3.0900000000000003,0.06277,32.13,,1660301248.753125,1
5.0,2.0,,,,1660301248.803125,1
5.0,1.21,,,,1660301248.853125,1
5.0,2.37,,,,1660301248.903125,1
5.0,3.223333333333333,,,,1660301248.953125,1
5.0,2.8549999999999995,0.061489,32.13,,1660301249.003125,1
5.0,4.3500000000000005,,,,1660301249.053125,1
5.0,5.29,,,,1660301249.103125,1
5.0,4.886666666666667,,,,1660301249.153125,1
5.0,4.266666666666667,,,,1660301249.203125,1
5.0,3.6225,0.06277,32.15,,1660301249.253125,1
5.0,2.58,,,,1660301249.303125,1
5.0,1.2100000000000002,,,,1660301249.353125,1
5.0,1.3966666666666667,,,,1660301249.403125,1
5.0,0.24,,,,1660301249.453125,1
5.0,3.455,0.061489,32.15,,1660301249.503125,1
5.0,15.543333333333331,,,,1660301249.553125,1
5.0,20.176666666666666,,,,1660301249.603125,1
5.0,18.346666666666668,,,,1660301249.653125,1
5.0,18.05666666666667,,,,1660301249.703125,1
5.0,14.465,0.065332,32.15,,1660301249.753125,1
5.0,5.683333333333334,,,,1660301249.803125,1
5.0,10.12,,,,1660301249.853125,1
5.0,12.530000000000001,,,,1660301249.903125,1
5.0,-9.34,,,,1660301249.953125,1
5.0,-33.260000000000005,0.064051,32.15,,1660301250.003125,1
5.0,-37.57666666666667,,,,1660301250.053125,1
5.0,-32.0,,,,1660301250.103125,1
5.0,-24.95,,,,1660301250.153125,1
5.0,-21.326666666666668,,,,1660301250.203125,1
5.0,-17.115000000000002,0.065332,32.15,,1660301250.253125,1
5.0,-9.61,,,,1660301250.303125,1
5.0,-3.8166666666666664,,,,1660301250.353125,1
5.0,1.8466666666666667,,,,1660301250.403125,1
5.0,5.3133333333333335,,,,1660301250.453125,1
5.0,6.7375,0.065332,32.15,,1660301250.503125,1
5.0,12.376666666666667,,,,1660301250.553125,1
5.0,17.200000000000003,,,,1660301250.603125,1
5.0,16.856666666666666,,,,1660301250.653125,1
5.0,11.493333333333332,,,,1660301250.703125,1
5.0,3.725,0.064051,32.15,,1660301250.753125,1
5.0,-4.37,,,,1660301250.803125,1
5.0,-9.993333333333332,,,,1660301250.853125,1
5.0,-11.636666666666665,,,,1660301250.903125,1
5.0,-11.083333333333334,,,,1660301250.953125,1
5.0,-13.41,0.06277,32.15,,1660301251.003125,1
5.0,-12.483333333333334,,,,1660301251.053125,1
5.0,-2.94,,,,1660301251.103125,1
5.0,6.136666666666667,,,,1660301251.153125,1
5.0,9.596666666666666,,,,1660301251.203125,1
5.0,9.6175,0.061489,32.16,,1660301251.253125,1
5.0,11.69,,,,1660301251.303125,1
5.0,13.726666666666667,,,,1660301251.353125,1
5.0,13.016666666666667,,,,1660301251.403125,1
5.0,14.15,,,,1660301251.453125,1
5.0,14.59,0.061489,32.16,,1660301251.503125,1
5.0,12.656666666666666,,,,1660301251.553125,1
5.0,13.64,,,,1660301251.603125,1
5.0,12.416666666666666,,,,1660301251.653125,1
5.0,10.236666666666666,,,,1660301251.703125,1
5.0,10.694999999999999,0.064051,32.16,,1660301251.753125,1
5.0,6.8,,,,1660301251.803125,1
5.0,-2.7100000000000004,,,,1660301251.853125,1
5.0,-0.8600000000000003,,,,1660301251.903125,1
5.0,13.986666666666666,,,,1660301251.953125,1
5.0,1.1299999999999994,0.061489,32.16,,1660301252.003125,1
5.0,-25.853333333333335,,,,1660301252.053125,1
5.0,-36.38,,,,1660301252.103125,1
5.0,-33.669999999999995,,,,1660301252.153125,1
5.0,-21.400000000000002,,,,1660301252.203125,1
5.0,-12.5875,0.065332,32.15,,1660301252.253125,1
5.0,-5.05,,,,1660301252.303125,1
5.0,-2.9233333333333333,,,,1660301252.353125,1
5.0,-3.2900000000000005,,,,1660301252.403125,1
5.0,-0.25666666666666665,,,,1660301252.453125,1
5.0,0.7125,0.065332,32.15,,1660301252.503125,1
5.0,-2.6199999999999997,,,,1660301252.553125,1
5.0,-1.1900000000000002,,,,1660301252.603125,1
5.0,3.92,,,,1660301252.653125,1
5.0,7.703333333333333,,,,1660301252.703125,1
5.0,10.372499999999999,0.064051,32.15,,1660301252.753125,1
5.0,9.97,,,,1660301252.803125,1
5.0,9.063333333333333,,,,1660301252.853125,1
5.0,9.326666666666666,,,,1660301252.903125,1
5.0,7.53,,,,1660301252.953125,1
5.0,5.397500000000001,0.06277,32.15,,1660301253.003125,1
5.0,2.89,,,,1660301253.053125,1
5.0,-1.3633333333333333,,,,1660301253.103125,1
5.0,-4.133333333333333,,,,1660301253.153125,1
5.0,-5.726666666666667,,,,1660301253.203125,1
5.0,-8.7875,0.06277,32.16,,1660301253.253125,1
5.0,-8.57,,,,1660301253.303125,1
5.0,-1.3800000000000001,,,,1660301253.353125,1
5.0,6.473333333333334,,,,1660301253.403125,1
5.0,10.660000000000002,,,,1660301253.453125,1
5.0,10.129999999999999,0.061489,32.16,,1660301253.503125,1
5.0,10.963333333333333,,,,1660301253.553125,1
5.0,13.543333333333335,,,,1660301253.603125,1
5.0,12.903333333333334,,,,1660301253.653125,1
5.0,12.24,,,,1660301253.703125,1
5.0,13.8725,0.066613,32.16,,1660301253.753125,1
5.0,9.763333333333334,,,,1660301253.803125,1
5.0,2.97,,,,1660301253.853125,1
5.0,11.526666666666666,,,,1660301253.903125,1
5.0,13.943333333333333,,,,1660301253.953125,1
5.0,-16.8825,0.066613,32.16,,1660301254.003125,1
5.0,-52.19333333333333,,,,1660301254.053125,1
5.0,-53.163333333333334,,,,1660301254.103125,1
5.0,-35.28666666666667,,,,1660301254.153125,1
5.0,-23.376666666666665,,,,1660301254.203125,1
5.0,-13.934999999999999,0.066613,32.16,,1660301254.253125,1
5.0,-6.153333333333333,,,,1660301254.303125,1
5.0,-2.4533333333333336,,,,1660301254.353125,1
5.0,0.3833333333333333,,,,1660301254.403125,1
5.0,2.5933333333333333,,,,1660301254.453125,1
5.0,3.6725,0.066613,32.16,,1660301254.503125,1
5.0,3.5,,,,1660301254.553125,1
5.0,4.463333333333334,,,,1660301254.603125,1
5.0,4.343333333333334,,,,1660301254.653125,1
5.0,3.0733333333333337,,,,1660301254.703125,1
5.0,1.8900000000000001,0.066613,32.16,,1660301254.753125,1
5.0,-2.8699999999999997,,,,1660301254.803125,1
5.0,-4.486666666666667,,,,1660301254.853125,1
5.0,1.5966666666666667,,,,1660301254.903125,1
5.0,3.7133333333333334,,,,1660301254.953125,1
5.0,4.1375,0.064051,32.16,,1660301255.003125,1
5.0,8.106666666666667,,,,1660301255.053125,1
5.0,10.01,,,,1660301255.103125,1
5.0,10.799999999999999,,,,1660301255.153125,1
5.0,10.62,,,,1660301255.203125,1
5.0,9.4875,0.066613,32.16,,1660301255.253125,1
5.0,8.383333333333333,,,,1660301255.303125,1
5.0,6.21,,,,1660301255.353125,1
5.0,6.626666666666668,,,,1660301255.403125,1
5.0,6.836666666666666,,,,1660301255.453125,1
5.0,2.7899999999999996,0.064051,32.16,,1660301255.503125,1
5.0,1.2633333333333334,,,,1660301255.553125,1
5.0,2.5433333333333334,,,,1660301255.603125,1
5.0,3.3466666666666662,,,,1660301255.653125,1
5.0,11.26,,,,1660301255.703125,1
5.0,12.299999999999999,0.067894,32.16,,1660301255.753125,1
5.0,-10.263333333333334,,,,1660301255.803125,1
5.0,-24.78,,,,1660301255.853125,1
5.0,-23.136666666666667,,,,1660301255.903125,1
5.0,-13.416666666666666,,,,1660301255.953125,1
5.0,-8.09,0.067894,32.16,,1660301256.003125,1
5.0,-6.483333333333333,,,,1660301256.053125,1
5.0,-2.06,,,,1660301256.103125,1
5.0,1.5566666666666666,,,,1660301256.153125,1
5.0,1.8333333333333333,,,,1660301256.203125,1
5.0,-0.945,0.066613,32.13,,1660301256.253125,1
5.0,-7.04,,,,1660301256.303125,1
5.0,-11.81,,,,1660301256.353125,1
5.0,-7.8066666666666675,,,,1660301256.403125,1
5.0,-0.41,,,,1660301256.453125,1
5.0,3.3325,0.066613,32.13,,1660301256.503125,1
5.0,5.293333333333333,,,,1660301256.553125,1
5.0,5.863333333333333,,,,1660301256.603125,1
5.0,5.263333333333333,,,,1660301256.653125,1
5.0,4.963333333333334,,,,1660301256.703125,1
5.0,5.77,0.065332,32.13,,1660301256.753125,1
5.0,5.363333333333333,,,,1660301256.803125,1
5.0,4.213333333333334,,,,1660301256.853125,1
5.0,4.113333333333333,,,,1660301256.903125,1
5.0,5.656666666666666,,,,1660301256.953125,1
5.0,4.047499999999999,0.065332,32.13,,1660301257.003125,1
5.0,2.5266666666666664,,,,1660301257.053125,1
5.0,1.1966666666666665,,,,1660301257.103125,1
5.0,-2.893333333333333,,,,1660301257.153125,1
5.0,-5.123333333333334,,,,1660301257.203125,1
5.0,-1.2650000000000001,0.064051,32.15,,1660301257.253125,1
5.0,2.356666666666667,,,,1660301257.303125,1
5.0,2.973333333333333,,,,1660301257.353125,1
5.0,3.9666666666666663,,,,1660301257.403125,1
5.0,4.353333333333333,,,,1660301257.453125,1
5.0,6.432499999999999,0.064051,32.15,,1660301257.503125,1
5.0,9.186666666666667,,,,1660301257.553125,1
5.0,9.383333333333333,,,,1660301257.603125,1
5.0,6.746666666666666,,,,1660301257.653125,1
5.0,2.56,,,,1660301257.703125,1
5.0,0.02250000000000002,0.066613,32.15,,1660301257.753125,1
5.0,-3.426666666666667,,,,1660301257.803125,1
5.0,-6.593333333333334,,,,1660301257.853125,1
5.0,-7.5,,,,1660301257.903125,1
5.0,-7.533333333333334,,,,1660301257.953125,1
5.0,-2.895,0.067894,32.15,,1660301258.003125,1
5.0,3.8333333333333335,,,,1660301258.053125,1
5.0,4.753333333333334,,,,1660301258.103125,1
5.0,2.6833333333333336,,,,1660301258.153125,1
5.0,1.3933333333333335,,,,1660301258.203125,1
5.0,3.2075000000000005,0.067894,32.13,,1660301258.253125,1
5.0,7.003333333333333,,,,1660301258.303125,1
5.0,6.326666666666667,,,,1660301258.353125,1
5.0,3.5233333333333334,,,,1660301258.403125,1
5.0,1.25,,,,1660301258.453125,1
5.0,0.975,0.066613,32.13,,1660301258.503125,1
5.0,-0.4066666666666667,,,,1660301258.553125,1
5.0,-2.0366666666666666,,,,1660301258.603125,1
5.0,-1.6000000000000003,,,,1660301258.653125,1
5.0,-1.5,,,,1660301258.703125,1
5.0,-4.9825,0.066613,32.13,,1660301258.753125,1
5.0,-10.48,,,,1660301258.803125,1
5.0,-7.243333333333333,,,,1660301258.853125,1
5.0,-2.1733333333333333,,,,1660301258.903125,1
5.0,-1.3466666666666667,,,,1660301258.953125,1
5.0,0.9624999999999999,0.064051,32.13,,1660301259.003125,1
5.0,3.263333333333333,,,,1660301259.053125,1
5.0,4.4433333333333325,,,,1660301259.103125,1
5.0,4.85,,,,1660301259.153125,1
5.0,6.183333333333334,,,,1660301259.203125,1
5.0,7.0975,0.064051,32.13,,1660301259.253125,1
5.0,5.286666666666666,,,,1660301259.303125,1
5.0,2.736666666666667,,,,1660301259.353125,1
5.0,0.01666666666666668,,,,1660301259.403125,1
5.0,-3.436666666666667,,,,1660301259.453125,1
5.0,-7.324999999999999,0.06277,32.13,,1660301259.503125,1
5.0,-11.366666666666667,,,,1660301259.553125,1
5.0,-15.410000000000002,,,,1660301259.603125,1
5.0,-15.913333333333332,,,,1660301259.653125,1
5.0,-9.346666666666666,,,,1660301259.703125,1
5.0,-2.1425,0.065332,32.13,,1660301259.753125,1
5.0,-0.3966666666666667,,,,1660301259.803125,1
5.0,2.47,,,,1660301259.853125,1
5.0,6.216666666666666,,,,1660301259.903125,1
5.0,7.626666666666666,,,,1660301259.953125,1
5.0,8.5975,0.066613,32.13,,1660301260.003125,1
5.0,7.686666666666667,,,,1660301260.053125,1
5.0,6.956666666666667,,,,1660301260.103125,1
5.0,8.286666666666667,,,,1660301260.153125,1
5.0,12.799999999999999,,,,1660301260.203125,1
5.0,15.275,0.065332,32.16,,1660301260.253125,1
5.0,10.103333333333333,,,,1660301260.303125,1
5.0,2.0500000000000003,,,,1660301260.353125,1
5.0,-8.07,,,,1660301260.403125,1
5.0,-0.8233333333333329,,,,1660301260.453125,1
5.0,19.2075,0.066613,32.16,,1660301260.503125,1
5.0,7.93,,,,1660301260.553125,1
5.0,-20.163333333333334,,,,1660301260.603125,1
5.0,-39.92666666666667,,,,1660301260.653125,1
5.0,-33.89333333333333,,,,1660301260.703125,1
5.0,-18.177500000000002,0.064051,32.16,,1660301260.753125,1
5.0,-9.47,,,,1660301260.803125,1
5.0,-4.53,,,,1660301260.853125,1
5.0,-1.3233333333333335,,,,1660301260.903125,1
5.0,1.9166666666666667,,,,1660301260.953125,1
5.0,1.6625,0.064051,32.16,,1660301261.003125,1
5.0,1.6500000000000001,,,,1660301261.053125,1
5.0,-0.1333333333333333,,,,1660301261.103125,1
5.0,-5.573333333333333,,,,1660301261.153125,1
5.0,-8.213333333333333,,,,1660301261.203125,1
5.0,-2.8024999999999998,0.064051,32.15,,1660301261.253125,1
5.0,2.15,,,,1660301261.303125,1
5.0,3.0666666666666664,,,,1660301261.353125,1
5.0,3.8633333333333333,,,,1660301261.403125,1
5.0,4.92,,,,1660301261.453125,1
5.0,3.94,0.065332,32.15,,1660301261.503125,1
5.0,2.68,,,,1660301261.553125,1
5.0,3.263333333333333,,,,1660301261.603125,1
5.0,3.4033333333333338,,,,1660301261.653125,1
5.0,2.4566666666666666,,,,1660301261.703125,1
5.0,0.59,0.066613,32.15,,1660301261.753125,1
5.0,-0.89,,,,1660301261.803125,1
5.0,-3.4599999999999995,,,,1660301261.853125,1
5.0,-6.736666666666667,,,,1660301261.903125,1
5.0,-11.670000000000002,,,,1660301261.953125,1
5.0,-15.05,0.067894,32.15,,1660301262.003125,1
5.0,-8.833333333333334,,,,1660301262.053125,1
5.0,-2.0466666666666664,,,,1660301262.103125,1
5.0,0.45,,,,1660301262.153125,1
5.0,4.086666666666667,,,,1660301262.203125,1
5.0,6.7700000000000005,0.067894,32.15,,1660301262.253125,1
5.0,7.026666666666666,,,,1660301262.303125,1
5.0,8.683333333333332,,,,1660301262.353125,1
5.0,10.443333333333333,,,,1660301262.403125,1
5.0,9.473333333333334,,,,1660301262.453125,1
5.0,4.532500000000001,0.067894,32.15,,1660301262.503125,1
5.0,-0.1366666666666667,,,,1660301262.553125,1
5.0,-2.6,,,,1660301262.603125,1
5.0,-1.6866666666666668,,,,1660301262.653125,1
5.0,0.12333333333333334,,,,1660301262.703125,1
5.0,-2.4125,0.065332,32.15,,1660301262.753125,1
5.0,-2.6533333333333333,,,,1660301262.803125,1
5.0,0.8333333333333334,,,,1660301262.853125,1
5.0,0.89,,,,1660301262.903125,1
5.0,-0.36333333333333334,,,,1660301262.953125,1
5.0,-0.605,0.064051,32.15,,1660301263.003125,1
5.0,0.6000000000000001,,,,1660301263.053125,1
5.0,2.4999999999999996,,,,1660301263.103125,1
5.0,2.1766666666666667,,,,1660301263.153125,1
5.0,0.033333333333333326,,,,1660301263.203125,1
5.0,-2.2375000000000003,0.06277,32.15,,1660301263.253125,1
5.0,-4.533333333333333,,,,1660301263.303125,1
5.0,-8.326666666666666,,,,1660301263.353125,1
5.0,-10.253333333333332,,,,1660301263.403125,1
5.0,-10.103333333333333,,,,1660301263.453125,1
5.0,-10.53,0.06277,32.15,,1660301263.503125,1
5.0,-9.06,,,,1660301263.553125,1
5.0,-3.69,,,,1660301263.603125,1
5.0,-0.35333333333333333,,,,1660301263.653125,1
5.0,0.8533333333333334,,,,1660301263.703125,1
5.0,4.6825,0.066613,32.15,,1660301263.753125,1
5.0,6.743333333333333,,,,1660301263.803125,1
5.0,6.88,,,,1660301263.853125,1
5.0,6.473333333333334,,,,1660301263.903125,1
5.0,3.6566666666666667,,,,1660301263.953125,1
5.0,1.23,0.066613,32.15,,1660301264.003125,1
5.0,2.1466666666666665,,,,1660301264.053125,1
5.0,1.5733333333333335,,,,1660301264.103125,1
5.0,1.11,,,,1660301264.153125,1
5.0,4.253333333333334,,,,1660301264.203125,1
5.0,4.2425,0.066613,32.11,,1660301264.253125,1
5.0,4.25,,,,1660301264.303125,1
5.0,8.74,,,,1660301264.353125,1
5.0,8.950000000000001,,,,1660301264.403125,1
5.0,10.573333333333332,,,,1660301264.453125,1
5.0,17.4475,0.065332,32.11,,1660301264.503125,1
5.0,16.25,,,,1660301264.553125,1
5.0,9.676666666666668,,,,1660301264.603125,1
5.0,17.430000000000003,,,,1660301264.653125,1
5.0,23.823333333333334,,,,1660301264.703125,1
5.0,6.305,0.064051,32.11,,1660301264.753125,1
5.0,-18.456666666666667,,,,1660301264.803125,1
5.0,-29.23,,,,1660301264.853125,1
5.0,-29.246666666666666,,,,1660301264.903125,1
5.0,-28.51,,,,1660301264.953125,1
5.0,-28.4875,0.065332,32.11,,1660301265.003125,1
5.0,-22.136666666666667,,,,1660301265.053125,1
5.0,-11.573333333333332,,,,1660301265.103125,1
5.0,-3.106666666666667,,,,1660301265.153125,1
5.0,1.43,,,,1660301265.203125,1
5.0,5.705,0.064051,32.13,,1660301265.253125,1
5.0,8.893333333333333,,,,1660301265.303125,1
5.0,12.623333333333335,,,,1660301265.353125,1
5.0,14.953333333333333,,,,1660301265.403125,1
5.0,12.316666666666668,,,,1660301265.453125,1
5.0,7.4350000000000005,0.067894,32.13,,1660301265.503125,1
5.0,3.116666666666667,,,,1660301265.553125,1
5.0,-1.3333333333333333,,,,1660301265.603125,1
5.0,-3.94,,,,1660301265.653125,1
5.0,-5.266666666666667,,,,1660301265.703125,1
5.0,-9.42,0.067894,32.13,,1660301265.753125,1
5.0,-12.303333333333335,,,,1660301265.803125,1
5.0,-9.123333333333333,,,,1660301265.853125,1
5.0,-5.723333333333334,,,,1660301265.903125,1
5.0,-5.243333333333333,,,,1660301265.953125,1
5.0,-4.7425,0.067894,32.13,,1660301266.003125,1
5.0,-2.3233333333333333,,,,1660301266.053125,1
5.0,0.68,,,,1660301266.103125,1
5.0,4.6033333333333335,,,,1660301266.153125,1
5.0,5.646666666666666,,,,1660301266.203125,1
5.0,5.145,0.067894,32.13,,1660301266.253125,1
5.0,5.633333333333333,,,,1660301266.303125,1
5.0,4.22,,,,1660301266.353125,1
5.0,2.2833333333333337,,,,1660301266.403125,1
5.0,1.6833333333333333,,,,1660301266.453125,1
5.0,-1.9075,0.066613,32.13,,1660301266.503125,1
5.0,-7.3933333333333335,,,,1660301266.553125,1
5.0,2.11,,,,1660301266.603125,1
5.0,10.6,,,,1660301266.653125,1
5.0,-0.029999999999999954,,,,1660301266.703125,1
5.0,-10.85,0.065332,32.13,,1660301266.753125,1
5.0,-7.273333333333333,,,,1660301266.803125,1
5.0,1.0966666666666667,,,,1660301266.853125,1
5.0,5.386666666666667,,,,1660301266.903125,1
5.0,6.62,,,,1660301266.953125,1
5.0,9.059999999999999,0.065332,32.13,,1660301267.003125,1
5.0,10.36,,,,1660301267.053125,1
5.0,8.346666666666668,,,,1660301267.103125,1
5.0,5.08,,,,1660301267.153125,1
5.0,2.416666666666667,,,,1660301267.203125,1
5.0,-1.8,0.064051,32.13,,1660301267.253125,1
5.0,-4.743333333333333,,,,1660301267.303125,1
5.0,-3.9433333333333334,,,,1660301267.353125,1
5.0,1.5666666666666667,,,,1660301267.403125,1
5.0,4.276666666666666,,,,1660301267.453125,1
5.0,2.4800000000000004,0.066613,32.13,,1660301267.503125,1
5.0,2.8166666666666664,,,,1660301267.553125,1
5.0,4.63,,,,1660301267.603125,1
5.0,8.563333333333334,,,,1660301267.653125,1
5.0,10.796666666666667,,,,1660301267.703125,1
5.0,10.285,0.067894,32.13,,1660301267.753125,1
5.0,9.403333333333334,,,,1660301267.803125,1
5.0,6.036666666666666,,,,1660301267.853125,1
5.0,1.8833333333333335,,,,1660301267.903125,1
5.0,-0.8700000000000001,,,,1660301267.953125,1
5.0,-5.955,0.069175,32.13,,1660301268.003125,1
5.0,-12.496666666666668,,,,1660301268.053125,1
5.0,-11.876666666666667,,,,1660301268.103125,1
5.0,-6.016666666666667,,,,1660301268.153125,1
5.0,-3.1199999999999997,,,,1660301268.203125,1
5.0,-1.85,0.067894,32.15,,1660301268.253125,1
5.0,2.0833333333333335,,,,1660301268.303125,1
5.0,4.923333333333333,,,,1660301268.353125,1
5.0,8.653333333333334,,,,1660301268.403125,1
5.0,11.583333333333334,,,,1660301268.453125,1
5.0,10.459999999999999,0.065332,32.15,,1660301268.503125,1
5.0,10.21,,,,1660301268.553125,1
5.0,12.876666666666665,,,,1660301268.603125,1
5.0,7.1433333333333335,,,,1660301268.653125,1
5.0,-13.799999999999999,,,,1660301268.703125,1
5.0,-30.6025,0.064051,32.15,,1660301268.753125,1
5.0,-28.540000000000003,,,,1660301268.803125,1
5.0,-23.48,,,,1660301268.853125,1
5.0,-18.31,,,,1660301268.903125,1
5.0,-8.950000000000001,,,,1660301268.953125,1
5.0,-1.3624999999999998,0.066613,32.15,,1660301269.003125,1
5.0,2.1666666666666665,,,,1660301269.053125,1
5.0,3.703333333333333,,,,1660301269.103125,1
5.0,6.82,,,,1660301269.153125,1
5.0,9.543333333333333,,,,1660301269.203125,1
5.0,8.34,0.064051,32.13,,1660301269.253125,1
5.0,7.666666666666667,,,,1660301269.303125,1
5.0,6.706666666666667,,,,1660301269.353125,1
5.0,6.083333333333333,,,,1660301269.403125,1
5.0,6.419999999999999,,,,1660301269.453125,1
5.0,6.6,0.064051,32.13,,1660301269.503125,1
5.0,2.9599999999999995,,,,1660301269.553125,1
5.0,-1.9866666666666666,,,,1660301269.603125,1
5.0,-8.659999999999998,,,,1660301269.653125,1
5.0,-8.943333333333333,,,,1660301269.703125,1
5.0,-2.705,0.067894,32.13,,1660301269.753125,1
5.0,-2.1166666666666667,,,,1660301269.803125,1
5.0,-1.9433333333333334,,,,1660301269.853125,1
5.0,1.3299999999999998,,,,1660301269.903125,1
5.0,5.483333333333333,,,,1660301269.953125,1
5.0,7.37,0.067894,32.13,,1660301270.003125,1
5.0,7.203333333333333,,,,1660301270.053125,1
5.0,5.489999999999999,,,,1660301270.103125,1
5.0,2.31,,,,1660301270.153125,1
5.0,-1.2633333333333334,,,,1660301270.203125,1
5.0,-5.5275,0.067894,32.13,,1660301270.253125,1
5.0,-9.633333333333333,,,,1660301270.303125,1
5.0,-18.196666666666665,,,,1660301270.353125,1
5.0,-24.656666666666666,,,,1660301270.403125,1
5.0,-18.403333333333332,,,,1660301270.453125,1
5.0,-4.765,0.067894,32.13,,1660301270.503125,1
5.0,2.2066666666666666,,,,1660301270.553125,1
5.0,7.44,,,,1660301270.603125,1
5.0,13.243333333333334,,,,1660301270.653125,1
5.0,14.956666666666665,,,,1660301270.703125,1
5.0,12.799999999999999,0.065332,32.13,,1660301270.753125,1
5.0,13.256666666666666,,,,1660301270.803125,1
5.0,13.566666666666668,,,,1660301270.853125,1
5.0,11.986666666666666,,,,1660301270.903125,1
5.0,11.839999999999998,,,,1660301270.953125,1
5.0,11.477500000000001,0.066613,32.13,,1660301271.003125,1
5.0,9.003333333333332,,,,1660301271.053125,1
5.0,6.1866666666666665,,,,1660301271.103125,1
5.0,-0.5433333333333333,,,,1660301271.153125,1
5.0,-9.57,,,,1660301271.203125,1
5.0,-9.9025,0.064051,32.13,,1660301271.253125,1
5.0,-4.483333333333333,,,,1660301271.303125,1
5.0,-3.0066666666666664,,,,1660301271.353125,1
5.0,-2.31,,,,1660301271.403125,1
5.0,-1.7033333333333331,,,,1660301271.453125,1
5.0,1.1025,0.066613,32.13,,1660301271.503125,1
5.0,3.7166666666666663,,,,1660301271.553125,1
5.0,3.526666666666667,,,,1660301271.603125,1
5.0,0.6066666666666666,,,,1660301271.653125,1
5.0,-3.263333333333333,,,,1660301271.703125,1
5.0,-5.1775,0.067894,32.13,,1660301271.753125,1
5.0,-5.366666666666667,,,,1660301271.803125,1
5.0,-5.616666666666666,,,,1660301271.853125,1
5.0,-4.55,,,,1660301271.903125,1
5.0,-4.486666666666666,,,,1660301271.953125,1
5.0,-7.505,0.066613,32.13,,1660301272.003125,1
5.0,-5.63,,,,1660301272.053125,1
5.0,2.1833333333333336,,,,1660301272.103125,1
5.0,6.14,,,,1660301272.153125,1
5.0,6.6499999999999995,,,,1660301272.203125,1
5.0,6.2675,0.066613,32.13,,1660301272.253125,1
5.0,5.946666666666666,,,,1660301272.303125,1
5.0,6.8566666666666665,,,,1660301272.353125,1
5.0,6.826666666666667,,,,1660301272.403125,1
5.0,5.830000000000001,,,,1660301272.453125,1
5.0,4.944999999999999,0.066613,32.13,,1660301272.503125,1
5.0,3.5700000000000003,,,,1660301272.553125,1
5.0,2.3033333333333332,,,,1660301272.603125,1
5.0,1.8999999999999997,,,,1660301272.653125,1
5.0,-0.5100000000000001,,,,1660301272.703125,1
5.0,-6.7225,0.065332,32.13,,1660301272.753125,1
5.0,-6.31,,,,1660301272.803125,1
5.0,-1.7333333333333334,,,,1660301272.853125,1
5.0,-1.0766666666666669,,,,1660301272.903125,1
5.0,-1.4833333333333334,,,,1660301272.953125,1
5.0,-2.2074999999999996,0.065332,32.13,,1660301273.003125,1
5.0,-2.483333333333334,,,,1660301273.053125,1
5.0,-1.8,,,,1660301273.103125,1
5.0,-1.3033333333333335,,,,1660301273.153125,1
5.0,-0.06666666666666667,,,,1660301273.203125,1
5.0,0.6375,0.066613,32.13,,1660301273.253125,1
5.0,1.08,,,,1660301273.303125,1
5.0,0.7866666666666667,,,,1660301273.353125,1
5.0,-0.7666666666666666,,,,1660301273.403125,1
5.0,-3.3466666666666662,,,,1660301273.453125,1
5.0,-8.485,0.065332,32.13,,1660301273.503125,1
5.0,-11.003333333333332,,,,1660301273.553125,1
5.0,-6.906666666666667,,,,1660301273.603125,1
5.0,-2.8633333333333333,,,,1660301273.653125,1
5.0,-0.7433333333333333,,,,1660301273.703125,1
5.0,0.83,0.067894,32.13,,1660301273.753125,1
5.0,2.85,,,,1660301273.803125,1
5.0,3.5833333333333335,,,,1660301273.853125,1
5.0,2.5566666666666666,,,,1660301273.903125,1
5.0,0.24333333333333332,,,,1660301273.953125,1
5.0,-2.6475,0.067894,32.13,,1660301274.003125,1
5.0,-3.716666666666667,,,,1660301274.053125,1
5.0,-4.263333333333333,,,,1660301274.103125,1
5.0,-5.803333333333334,,,,1660301274.153125,1
5.0,-5.55,,,,1660301274.203125,1
5.0,-4.53,0.067894,32.13,,1660301274.253125,1
5.0,-8.143333333333333,,,,1660301274.303125,1
5.0,-9.296666666666667,,,,1660301274.353125,1
5.0,-5.56,,,,1660301274.403125,1
5.0,-2.1333333333333333,,,,1660301274.453125,1
5.0,-1.7925,0.066613,32.13,,1660301274.503125,1
5.0,-1.4133333333333333,,,,1660301274.553125,1
5.0,0.52,,,,1660301274.603125,1
5.0,2.55,,,,1660301274.653125,1
5.0,5.6433333333333335,,,,1660301274.703125,1
5.0,11.845,0.065332,32.13,,1660301274.753125,1
5.0,17.07,,,,1660301274.803125,1
5.0,11.106666666666667,,,,1660301274.853125,1
5.0,0.7400000000000001,,,,1660301274.903125,1
5.0,-4.976666666666667,,,,1660301274.953125,1
5.0,-7.6925,0.065332,32.13,,1660301275.003125,1
5.0,-10.523333333333333,,,,1660301275.053125,1
5.0,-10.75,,,,1660301275.103125,1
5.0,-2.91,,,,1660301275.153125,1
5.0,6.003333333333334,,,,1660301275.203125,1
5.0,9.6,0.064051,32.11,,1660301275.253125,1
5.0,8.62,,,,1660301275.303125,1
5.0,4.546666666666666,,,,1660301275.353125,1
5.0,3.53,,,,1660301275.403125,1
5.0,1.84,,,,1660301275.453125,1
5.0,0.9625,0.064051,32.11,,1660301275.503125,1
5.0,4.3933333333333335,,,,1660301275.553125,1
5.0,3.0766666666666667,,,,1660301275.603125,1
5.0,0.7166666666666668,,,,1660301275.653125,1
5.0,-3.03,,,,1660301275.703125,1
5.0,-9.174999999999999,0.067894,32.11,,1660301275.753125,1
5.0,-11.463333333333333,,,,1660301275.803125,1
5.0,-7.226666666666667,,,,1660301275.853125,1
5.0,-2.0766666666666667,,,,1660301275.903125,1
5.0,1.4900000000000002,,,,1660301275.953125,1
5.0,3.085,0.067894,32.11,,1660301276.003125,1
5.0,4.646666666666667,,,,1660301276.053125,1
5.0,3.9033333333333338,,,,1660301276.103125,1
5.0,2.4966666666666666,,,,1660301276.153125,1
5.0,1.6300000000000001,,,,1660301276.203125,1
5.0,-2.015,0.067894,32.11,,1660301276.253125,1
5.0,-5.446666666666666,,,,1660301276.303125,1
5.0,-5.576666666666667,,,,1660301276.353125,1
5.0,-5.033333333333334,,,,1660301276.403125,1
5.0,-5.206666666666667,,,,1660301276.453125,1
5.0,-7.445,0.069175,32.11,,1660301276.503125,1
5.0,-5.896666666666667,,,,1660301276.553125,1
5.0,-4.146666666666667,,,,1660301276.603125,1
5.0,-7.8933333333333335,,,,1660301276.653125,1
5.0,-7.259999999999999,,,,1660301276.703125,1
5.0,6.012499999999999,0.069175,32.11,,1660301276.753125,1
5.0,12.93,,,,1660301276.803125,1
5.0,10.166666666666666,,,,1660301276.853125,1
