ID,empatica_bvp,empatica_eda,empatica_temp,samsung_bvp,time,CL
5.0,39.15083333333334,,,,1660301735.95625,0
5.0,88.22727272727273,0.070443,31.43,,1660301736.13125,0
5.0,158.14909090909092,0.075567,31.43,,1660301736.30625,0
5.0,126.17272727272724,,,,1660301736.48125,0
5.0,22.55545454545454,0.06404,31.43,,1660301736.65625,0
5.0,-145.86916666666664,0.062759,31.43,,1660301736.83125,0
5.0,-336.32545454545453,0.06532,31.43,,1660301737.00625,0
5.0,-697.9581818181819,,,,1660301737.18125,0
5.0,52.92181818181817,0.06532,31.41,,1660301737.35625,0
5.0,229.8472727272727,0.06404,31.41,,1660301737.53125,0
5.0,244.46749999999997,,,,1660301737.70625,0
5.0,233.04545454545453,0.061478,31.41,,1660301737.88125,0
5.0,49.8,0.061478,31.41,,1660301738.05625,0
5.0,-29.04727272727273,,,,1660301738.23125,0
5.0,-34.309999999999995,0.06404,31.45,,1660301738.40625,0
5.0,-18.140833333333333,0.06404,31.45,,1660301738.58125,0
5.0,-1.3836363636363636,0.06404,31.45,,1660301738.75625,0
5.0,0.46818181818181803,,,,1660301738.93125,0
5.0,-16.725454545454543,0.061478,31.45,,1660301739.10625,0
5.0,-7.258181818181819,0.062759,31.41,,1660301739.28125,0
5.0,-0.3441666666666669,,,,1660301739.45625,0
5.0,3.7845454545454547,0.061478,31.41,,1660301739.63125,0
5.0,-6.641818181818182,0.062759,31.41,,1660301739.80625,0
5.0,1.1481818181818177,,,,1660301739.98125,0
5.0,13.021818181818183,0.06404,31.41,,1660301740.15625,0
5.0,15.935000000000004,0.06404,31.41,,1660301740.33125,0
5.0,-3.293636363636364,0.061478,31.41,,1660301740.50625,0
5.0,-18.346363636363638,,,,1660301740.68125,0
5.0,15.608181818181817,0.060197,31.41,,1660301740.85625,0
5.0,20.486363636363638,0.06404,31.41,,1660301741.03125,0
5.0,1.8891666666666669,,,,1660301741.20625,0
5.0,-13.46,0.062759,31.39,,1660301741.38125,0
5.0,-0.4836363636363639,0.06404,31.39,,1660301741.55625,0
5.0,12.37,,,,1660301741.73125,0
5.0,8.700000000000001,0.062759,31.39,,1660301741.90625,0
5.0,-6.802499999999999,0.061478,31.39,,1660301742.08125,0
5.0,-0.032727272727272834,0.060197,31.43,,1660301742.25625,0
5.0,10.317272727272726,,,,1660301742.43125,0
5.0,6.540000000000001,0.06404,31.43,,1660301742.60625,0
5.0,-6.29,0.06404,31.43,,1660301742.78125,0
5.0,-4.344166666666665,,,,1660301742.95625,0
5.0,8.875454545454545,0.062759,31.43,,1660301743.13125,0
5.0,11.18818181818182,0.061478,31.41,,1660301743.30625,0
5.0,-5.307272727272727,,,,1660301743.48125,0
5.0,-29.44727272727273,0.061478,31.41,,1660301743.65625,0
5.0,-6.570833333333333,0.06404,31.41,,1660301743.83125,0
5.0,10.072727272727272,0.06404,31.41,,1660301744.00625,0
5.0,9.355454545454547,,,,1660301744.18125,0
5.0,-6.472727272727273,0.062759,31.41,,1660301744.35625,0
5.0,-4.211818181818182,0.061478,31.41,,1660301744.53125,0
5.0,7.9750000000000005,,,,1660301744.70625,0
5.0,6.130909090909091,0.061478,31.41,,1660301744.88125,0
5.0,-10.020000000000001,0.062759,31.41,,1660301745.05625,0
5.0,-22.336363636363632,,,,1660301745.23125,0
5.0,-2.336363636363636,0.06404,31.39,,1660301745.40625,0
5.0,12.321666666666667,0.06532,31.39,,1660301745.58125,0
5.0,9.822727272727272,0.06404,31.39,,1660301745.75625,0
5.0,2.972727272727273,,,,1660301745.93125,0
5.0,-7.678181818181818,0.062759,31.39,,1660301746.10625,0
5.0,0.13636363636363635,0.061478,31.41,,1660301746.28125,0
5.0,-5.204166666666667,,,,1660301746.45625,0
5.0,-22.640909090909087,0.06404,31.41,,1660301746.63125,0
5.0,-27.38,0.062759,31.41,,1660301746.80625,0
5.0,8.649090909090908,,,,1660301746.98125,0
5.0,46.88272727272727,0.06404,31.41,,1660301747.15625,0
5.0,26.078333333333333,0.061478,31.41,,1660301747.33125,0
5.0,-10.141818181818183,0.061478,31.41,,1660301747.50625,0
5.0,-25.435454545454544,,,,1660301747.68125,0
5.0,1.5963636363636367,0.062759,31.41,,1660301747.85625,0
5.0,5.302727272727274,0.06404,31.41,,1660301748.03125,0
5.0,-7.34,,,,1660301748.20625,0
5.0,-24.11909090909091,0.06404,31.41,,1660301748.38125,0
5.0,-7.786363636363637,0.061478,31.41,,1660301748.55625,0
5.0,21.76,,,,1660301748.73125,0
5.0,31.687272727272727,0.061478,31.41,,1660301748.90625,0
5.0,8.005833333333333,0.061478,31.41,,1660301749.08125,0
5.0,-3.447272727272727,0.06404,31.43,,1660301749.25625,0
5.0,7.569999999999999,,,,1660301749.43125,0
5.0,3.5445454545454536,0.062759,31.43,,1660301749.60625,0
5.0,-12.21,0.06404,31.43,,1660301749.78125,0
5.0,-20.696666666666665,,,,1660301749.95625,0
5.0,-0.7518181818181818,0.061478,31.43,,1660301750.13125,0
5.0,2.350909090909091,0.060197,31.41,,1660301750.30625,0
5.0,-8.144545454545455,,,,1660301750.48125,0
5.0,-19.23818181818182,0.06404,31.41,,1660301750.65625,0
5.0,2.6000000000000005,0.062759,31.41,,1660301750.83125,0
5.0,5.386363636363636,0.062759,31.41,,1660301751.00625,0
5.0,-13.526363636363635,,,,1660301751.18125,0
5.0,-35.92727272727273,0.061478,31.41,,1660301751.35625,0
5.0,3.0309090909090908,0.060197,31.41,,1660301751.53125,0
5.0,23.459999999999997,,,,1660301751.70625,0
5.0,21.20090909090909,0.062759,31.41,,1660301751.88125,0
5.0,-8.284545454545453,0.06404,31.41,,1660301752.05625,0
5.0,14.560909090909092,,,,1660301752.23125,0
5.0,15.015454545454544,0.06404,31.41,,1660301752.40625,0
5.0,14.145000000000001,0.060197,31.41,,1660301752.58125,0
5.0,-7.59,0.060197,31.41,,1660301752.75625,0
5.0,-5.34,,,,1660301752.93125,0
5.0,4.538181818181818,0.060197,31.41,,1660301753.10625,0
5.0,14.126363636363637,0.06404,31.41,,1660301753.28125,0
5.0,3.3816666666666664,,,,1660301753.45625,0
5.0,-12.49909090909091,0.062759,31.41,,1660301753.63125,0
5.0,-6.414545454545456,0.062759,31.41,,1660301753.80625,0
5.0,7.414545454545453,,,,1660301753.98125,0
5.0,9.48,0.060197,31.41,,1660301754.15625,0
5.0,0.4925,0.060197,31.41,,1660301754.33125,0
5.0,-12.256363636363636,0.062759,31.41,,1660301754.50625,0
5.0,5.182727272727273,,,,1660301754.68125,0
5.0,12.617272727272729,0.062759,31.41,,1660301754.85625,0
5.0,10.56818181818182,0.061478,31.41,,1660301755.03125,0
5.0,-6.0325,,,,1660301755.20625,0
5.0,-26.096363636363638,0.060197,31.39,,1660301755.38125,0
5.0,-3.6409090909090907,0.060197,31.39,,1660301755.55625,0
5.0,-2.4109090909090907,,,,1660301755.73125,0
5.0,-6.843636363636364,0.061478,31.39,,1660301755.90625,0
5.0,-9.652499999999998,0.062759,31.39,,1660301756.08125,0
5.0,-16.365454545454547,0.062759,31.41,,1660301756.25625,0
5.0,0.8954545454545453,,,,1660301756.43125,0
5.0,11.015454545454546,0.060197,31.41,,1660301756.60625,0
5.0,13.204545454545455,0.061478,31.41,,1660301756.78125,0
5.0,0.8775000000000004,,,,1660301756.95625,0
5.0,-14.787272727272727,0.058916,31.41,,1660301757.13125,0
5.0,1.4118181818181816,0.061478,31.41,,1660301757.30625,0
5.0,7.474545454545455,,,,1660301757.48125,0
5.0,7.078181818181818,0.061478,31.41,,1660301757.65625,0
5.0,-5.276666666666666,0.061478,31.41,,1660301757.83125,0
5.0,-14.334545454545456,0.058916,31.41,,1660301758.00625,0
5.0,-0.8636363636363636,,,,1660301758.18125,0
5.0,5.919999999999999,0.057636,31.41,,1660301758.35625,0
5.0,1.6027272727272726,0.061478,31.41,,1660301758.53125,0
5.0,-12.240833333333335,,,,1660301758.70625,0
5.0,-8.219090909090909,0.062759,31.41,,1660301758.88125,0
5.0,6.8563636363636355,0.061478,31.41,,1660301759.05625,0
5.0,10.02909090909091,,,,1660301759.23125,0
5.0,6.169090909090909,0.062759,31.39,,1660301759.40625,0
5.0,-10.796666666666667,0.058916,31.39,,1660301759.58125,0
5.0,-6.079090909090909,0.06404,31.39,,1660301759.75625,0
5.0,9.261818181818182,,,,1660301759.93125,0
5.0,19.597272727272728,0.062759,31.39,,1660301760.10625,0
5.0,0.28545454545454585,0.062759,31.39,,1660301760.28125,0
5.0,-9.789166666666665,,,,1660301760.45625,0
5.0,3.563636363636364,0.060197,31.39,,1660301760.63125,0
5.0,3.2018181818181817,0.058916,31.39,,1660301760.80625,0
5.0,-12.34818181818182,,,,1660301760.98125,0
5.0,-20.795454545454547,0.058916,31.39,,1660301761.15625,0
5.0,-0.7700000000000005,0.061478,31.39,,1660301761.33125,0
5.0,0.770909090909091,0.062759,31.39,,1660301761.50625,0
5.0,-0.11818181818181817,,,,1660301761.68125,0
5.0,-7.130909090909091,0.061478,31.39,,1660301761.85625,0
5.0,-4.242727272727273,0.060197,31.39,,1660301762.03125,0
5.0,18.0225,,,,1660301762.20625,0
5.0,17.307272727272725,0.060197,31.43,,1660301762.38125,0
5.0,3.3818181818181823,0.062759,31.43,,1660301762.55625,0
5.0,-17.43909090909091,,,,1660301762.73125,0
5.0,-3.9963636363636352,0.061478,31.43,,1660301762.90625,0
5.0,9.288333333333334,0.062759,31.43,,1660301763.08125,0
5.0,17.88727272727273,0.061478,31.39,,1660301763.25625,0
5.0,6.20090909090909,,,,1660301763.43125,0
5.0,-21.587272727272726,0.060197,31.39,,1660301763.60625,0
5.0,4.233636363636363,0.058916,31.39,,1660301763.78125,0
5.0,10.235833333333334,,,,1660301763.95625,0
5.0,-8.294545454545455,0.062759,31.39,,1660301764.13125,0
5.0,-10.889090909090909,0.060197,31.41,,1660301764.30625,0
5.0,-19.402727272727272,,,,1660301764.48125,0
5.0,6.405454545454545,0.061478,31.41,,1660301764.65625,0
5.0,12.504166666666665,0.058916,31.41,,1660301764.83125,0
5.0,7.157272727272727,0.058916,31.41,,1660301765.00625,0
5.0,8.466363636363637,,,,1660301765.18125,0
5.0,-8.479090909090909,0.061478,31.41,,1660301765.35625,0
5.0,8.685454545454546,0.061478,31.41,,1660301765.53125,0
5.0,16.71583333333334,,,,1660301765.70625,0
5.0,-0.4227272727272727,0.060197,31.41,,1660301765.88125,0
5.0,0.3200000000000003,0.058916,31.41,,1660301766.05625,0
5.0,2.9909090909090907,,,,1660301766.23125,0
5.0,2.0127272727272727,0.057636,31.41,,1660301766.40625,0
5.0,0.1891666666666668,0.060197,31.41,,1660301766.58125,0
5.0,-7.752727272727273,0.060197,31.41,,1660301766.75625,0
5.0,-20.316363636363636,,,,1660301766.93125,0
5.0,-6.899090909090909,0.060197,31.41,,1660301767.10625,0
5.0,8.488181818181818,0.058916,31.39,,1660301767.28125,0
5.0,11.760833333333332,,,,1660301767.45625,0
5.0,-3.0563636363636366,0.057636,31.39,,1660301767.63125,0
5.0,-23.728181818181824,0.060197,31.39,,1660301767.80625,0
5.0,-11.854545454545452,,,,1660301767.98125,0
5.0,-6.233636363636363,0.061478,31.39,,1660301768.15625,0
5.0,0.2483333333333336,0.061478,31.39,,1660301768.33125,0
5.0,4.85,0.057636,31.39,,1660301768.50625,0
5.0,12.952727272727271,,,,1660301768.68125,0
5.0,26.474545454545453,0.057636,31.39,,1660301768.85625,0
5.0,14.45727272727273,0.061478,31.39,,1660301769.03125,0
5.0,0.5850000000000005,,,,1660301769.20625,0
5.0,-26.83727272727273,0.061478,31.41,,1660301769.38125,0
5.0,-6.3081818181818194,0.060197,31.41,,1660301769.55625,0
5.0,2.1036363636363635,,,,1660301769.73125,0
5.0,10.565454545454545,0.061478,31.41,,1660301769.90625,0
5.0,-5.016666666666667,0.058916,31.41,,1660301770.08125,0
5.0,-12.841818181818184,0.058916,31.43,,1660301770.25625,0
5.0,3.089090909090909,,,,1660301770.43125,0
5.0,11.237272727272728,0.061478,31.43,,1660301770.60625,0
5.0,5.441818181818181,0.062759,31.43,,1660301770.78125,0
5.0,-7.045000000000001,,,,1660301770.95625,0
5.0,10.370000000000001,0.061478,31.43,,1660301771.13125,0
5.0,19.805454545454545,0.058916,31.41,,1660301771.30625,0
5.0,6.946363636363637,,,,1660301771.48125,0
5.0,-14.524545454545455,0.058916,31.41,,1660301771.65625,0
5.0,-23.054166666666664,0.058916,31.41,,1660301771.83125,0
5.0,-11.877272727272727,0.062759,31.41,,1660301772.00625,0
5.0,-0.1381818181818182,,,,1660301772.18125,0
5.0,-7.842727272727274,0.061478,31.41,,1660301772.35625,0
5.0,-22.092727272727277,0.060197,31.41,,1660301772.53125,0
5.0,-0.9158333333333334,,,,1660301772.70625,0
5.0,15.055454545454547,0.057636,31.41,,1660301772.88125,0
5.0,13.685454545454546,0.057636,31.41,,1660301773.05625,0
5.0,-2.7481818181818185,,,,1660301773.23125,0
5.0,-11.902727272727274,0.061478,31.41,,1660301773.40625,0
5.0,9.483333333333333,0.061478,31.41,,1660301773.58125,0
5.0,14.398181818181818,0.058916,31.41,,1660301773.75625,0
5.0,9.224545454545455,,,,1660301773.93125,0
5.0,-5.70909090909091,0.057636,31.41,,1660301774.10625,0
5.0,-2.7418181818181826,0.057636,31.41,,1660301774.28125,0
5.0,5.655,,,,1660301774.45625,0
5.0,5.052727272727272,0.056355,31.41,,1660301774.63125,0
5.0,-7.793636363636363,0.061478,31.41,,1660301774.80625,0
5.0,-23.111818181818183,,,,1660301774.98125,0
5.0,-2.2881818181818185,0.060197,31.41,,1660301775.15625,0
5.0,13.537499999999996,0.061478,31.41,,1660301775.33125,0
5.0,13.788181818181817,0.058916,31.41,,1660301775.50625,0
5.0,-0.6790909090909092,,,,1660301775.68125,0
5.0,-11.969090909090909,0.057636,31.41,,1660301775.85625,0
5.0,9.017272727272728,0.057636,31.41,,1660301776.03125,0
5.0,19.940833333333334,,,,1660301776.20625,0
5.0,12.756363636363638,0.061478,31.39,,1660301776.38125,0
5.0,-7.841818181818181,0.060197,31.39,,1660301776.55625,0
5.0,-15.375454545454547,,,,1660301776.73125,0
5.0,0.22000000000000008,0.060197,31.39,,1660301776.90625,0
5.0,3.0900000000000003,0.058916,31.39,,1660301777.08125,0
5.0,-15.291818181818183,0.056355,31.41,,1660301777.25625,0
5.0,-32.771818181818176,,,,1660301777.43125,0
5.0,-1.0727272727272725,0.060197,31.41,,1660301777.60625,0
5.0,22.54909090909091,0.078128,31.41,,1660301777.78125,0
5.0,13.169166666666667,,,,1660301777.95625,0
5.0,1.3427272727272728,0.060197,31.41,,1660301778.13125,0
5.0,-9.759090909090908,0.057636,31.39,,1660301778.30625,0
5.0,0.8218181818181818,,,,1660301778.48125,0
5.0,4.649090909090909,0.056355,31.39,,1660301778.65625,0
5.0,-1.304166666666667,0.060197,31.39,,1660301778.83125,0
5.0,1.0554545454545454,0.056355,31.39,,1660301779.00625,0
5.0,1.7772727272727271,,,,1660301779.18125,0
5.0,15.182727272727275,0.058916,31.39,,1660301779.35625,0
5.0,13.892727272727274,0.057636,31.39,,1660301779.53125,0
5.0,-5.054166666666667,,,,1660301779.70625,0
5.0,-24.55909090909091,0.056355,31.39,,1660301779.88125,0
5.0,-12.425454545454546,0.056355,31.39,,1660301780.05625,0
5.0,-5.008181818181819,,,,1660301780.23125,0
5.0,-10.612727272727271,0.060197,31.37,,1660301780.40625,0
5.0,-28.035,0.060197,31.37,,1660301780.58125,0
5.0,-6.020909090909089,0.056355,31.37,,1660301780.75625,0
5.0,15.592727272727272,,,,1660301780.93125,0
5.0,24.39181818181818,0.057636,31.37,,1660301781.10625,0
5.0,23.06363636363636,0.058916,31.41,,1660301781.28125,0
5.0,3.294166666666667,,,,1660301781.45625,0
5.0,5.691818181818181,0.056355,31.41,,1660301781.63125,0
5.0,4.453636363636363,0.060197,31.41,,1660301781.80625,0
5.0,2.4427272727272724,,,,1660301781.98125,0
5.0,-10.366363636363637,0.060197,31.41,,1660301782.15625,0
5.0,5.224166666666666,0.058916,31.37,,1660301782.33125,0
5.0,7.550909090909091,0.057636,31.37,,1660301782.50625,0
5.0,0.3936363636363635,,,,1660301782.68125,0
5.0,-16.873636363636365,0.058916,31.37,,1660301782.85625,0
5.0,-5.7709090909090905,0.057636,31.37,,1660301783.03125,0
5.0,0.7466666666666667,,,,1660301783.20625,0
5.0,-5.03090909090909,0.058916,31.39,,1660301783.38125,0
5.0,-13.30090909090909,0.060197,31.39,,1660301783.55625,0
5.0,-20.972727272727273,,,,1660301783.73125,0
5.0,-2.641818181818182,0.057636,31.39,,1660301783.90625,0
5.0,16.668333333333333,0.057636,31.39,,1660301784.08125,0
5.0,20.827272727272728,0.061478,31.37,,1660301784.25625,0
5.0,13.28,,,,1660301784.43125,0
5.0,14.341818181818182,0.061478,31.37,,1660301784.60625,0
5.0,8.31090909090909,0.060197,31.37,,1660301784.78125,0
5.0,-1.3091666666666668,,,,1660301784.95625,0
5.0,-24.014545454545452,0.057636,31.37,,1660301785.13125,0
5.0,-20.804545454545455,0.057636,31.41,,1660301785.30625,0
5.0,2.7409090909090907,,,,1660301785.48125,0
5.0,11.75090909090909,0.060197,31.41,,1660301785.65625,0
5.0,-6.529166666666666,0.058916,31.41,,1660301785.83125,0
5.0,-18.485454545454544,0.060197,31.41,,1660301786.00625,0
5.0,7.195454545454546,,,,1660301786.18125,0
5.0,13.163636363636364,0.057636,31.39,,1660301786.35625,0
5.0,10.976363636363635,0.057636,31.39,,1660301786.53125,0
5.0,-1.9791666666666667,,,,1660301786.70625,0
5.0,-0.05181818181818168,0.058916,31.39,,1660301786.88125,0
5.0,12.909090909090908,0.060197,31.39,,1660301787.05625,0
5.0,14.297272727272725,,,,1660301787.23125,0
5.0,-3.0281818181818183,0.061478,31.39,,1660301787.40625,0
5.0,-14.574166666666663,0.060197,31.39,,1660301787.58125,0
5.0,-0.8990909090909092,0.057636,31.39,,1660301787.75625,0
5.0,5.128181818181819,,,,1660301787.93125,0
5.0,-8.863636363636363,0.057636,31.39,,1660301788.10625,0
5.0,-14.870909090909093,0.061478,31.37,,1660301788.28125,0
5.0,5.280833333333334,,,,1660301788.45625,0
5.0,6.0227272727272725,0.060197,31.37,,1660301788.63125,0
5.0,4.475454545454546,0.060197,31.37,,1660301788.80625,0
5.0,-8.511818181818182,,,,1660301788.98125,0
5.0,-0.9518181818181817,0.058916,31.37,,1660301789.15625,0
5.0,10.816666666666665,0.057636,31.39,,1660301789.33125,0
5.0,3.6381818181818186,0.058916,31.39,,1660301789.50625,0
5.0,-10.690909090909091,,,,1660301789.68125,0
5.0,-4.2727272727272725,0.061478,31.39,,1660301789.85625,0
5.0,13.709090909090907,0.060197,31.39,,1660301790.03125,0
5.0,11.485833333333334,,,,1660301790.20625,0
5.0,-5.384545454545454,0.057636,31.39,,1660301790.38125,0
5.0,-30.190909090909088,0.057636,31.39,,1660301790.55625,0
5.0,9.796363636363635,,,,1660301790.73125,0
5.0,24.780909090909095,0.058916,31.39,,1660301790.90625,0
5.0,9.825833333333334,0.061478,31.39,,1660301791.08125,0
5.0,-20.567272727272726,0.060197,31.39,,1660301791.25625,0
5.0,-17.507272727272724,,,,1660301791.43125,0
5.0,3.2290909090909086,0.057636,31.39,,1660301791.60625,0
5.0,15.43090909090909,0.057636,31.39,,1660301791.78125,0
5.0,6.969166666666666,,,,1660301791.95625,0
5.0,-7.25090909090909,0.061478,31.39,,1660301792.13125,0
5.0,8.492727272727272,0.061478,31.39,,1660301792.30625,0
5.0,-0.15545454545454548,,,,1660301792.48125,0
5.0,-1.1063636363636364,0.058916,31.39,,1660301792.65625,0
5.0,-12.821666666666665,0.058916,31.39,,1660301792.83125,0
5.0,3.110909090909091,0.056355,31.39,,1660301793.00625,0
5.0,11.595454545454546,,,,1660301793.18125,0
5.0,11.498181818181818,0.058916,31.39,,1660301793.35625,0
5.0,-9.303636363636365,0.060197,31.39,,1660301793.53125,0
5.0,-23.750833333333333,,,,1660301793.70625,0
5.0,4.8536363636363635,0.057636,31.39,,1660301793.88125,0
5.0,13.937272727272727,0.056355,31.39,,1660301794.05625,0
5.0,5.198181818181819,,,,1660301794.23125,0
5.0,-5.340909090909091,0.056355,31.39,,1660301794.40625,0
5.0,-7.251666666666668,0.060197,31.39,,1660301794.58125,0
5.0,-8.364545454545453,0.058916,31.39,,1660301794.75625,0
5.0,-9.67818181818182,,,,1660301794.93125,0
5.0,-15.645454545454545,0.058916,31.39,,1660301795.10625,0
5.0,-4.795454545454546,0.058916,31.39,,1660301795.28125,0
5.0,20.5775,,,,1660301795.45625,0
5.0,23.043636363636367,0.056355,31.39,,1660301795.63125,0
5.0,39.47090909090909,0.058916,31.39,,1660301795.80625,0
5.0,32.947272727272725,,,,1660301795.98125,0
5.0,-4.064545454545454,0.060197,31.39,,1660301796.15625,0
5.0,11.128333333333332,0.057636,31.39,,1660301796.33125,0
5.0,-63.561818181818175,0.057636,31.39,,1660301796.50625,0
5.0,-66.68454545454546,,,,1660301796.68125,0
5.0,-15.661818181818182,0.058916,31.39,,1660301796.85625,0
5.0,7.235454545454545,0.058916,31.39,,1660301797.03125,0
5.0,-1.6358333333333333,,,,1660301797.20625,0
5.0,-13.415454545454544,0.057636,31.37,,1660301797.38125,0
5.0,11.065454545454545,0.057636,31.37,,1660301797.55625,0
5.0,20.782727272727275,,,,1660301797.73125,0
5.0,11.782727272727273,0.057636,31.37,,1660301797.90625,0
5.0,-8.850000000000001,0.061478,31.37,,1660301798.08125,0
5.0,-3.7063636363636365,0.061478,31.41,,1660301798.25625,0
5.0,15.23,,,,1660301798.43125,0
5.0,13.441818181818183,0.060197,31.41,,1660301798.60625,0
5.0,-2.2636363636363637,0.058916,31.41,,1660301798.78125,0
5.0,-4.545833333333334,,,,1660301798.95625,0
5.0,13.505454545454542,0.057636,31.41,,1660301799.13125,0
5.0,16.094545454545454,0.060197,31.37,,1660301799.30625,0
5.0,3.5581818181818177,,,,1660301799.48125,0
5.0,-6.691818181818181,0.060197,31.37,,1660301799.65625,0
5.0,2.2775,0.060197,31.37,,1660301799.83125,0
5.0,5.015454545454546,0.060197,31.37,,1660301800.00625,0
5.0,-8.731818181818182,,,,1660301800.18125,0
5.0,-17.75909090909091,0.057636,31.41,,1660301800.35625,0
5.0,-25.614545454545453,0.061478,31.41,,1660301800.53125,0
5.0,-2.2591666666666668,,,,1660301800.70625,0
5.0,19.24818181818182,0.060197,31.41,,1660301800.88125,0
5.0,9.26909090909091,0.057636,31.41,,1660301801.05625,0
5.0,-0.11363636363636384,,,,1660301801.23125,0
5.0,11.118181818181819,0.056355,31.39,,1660301801.40625,0
5.0,6.625,0.056355,31.39,,1660301801.58125,0
5.0,4.704545454545454,0.061478,31.39,,1660301801.75625,0
5.0,-12.613636363636363,,,,1660301801.93125,0
5.0,-10.788181818181819,0.058916,31.39,,1660301802.10625,0
5.0,9.224545454545455,0.057636,31.35,,1660301802.28125,0
5.0,29.4475,,,,1660301802.45625,0
5.0,36.63090909090909,0.060197,31.35,,1660301802.63125,0
5.0,58.57000000000001,0.056355,31.35,,1660301802.80625,0
5.0,-7.809090909090909,,,,1660301802.98125,0
5.0,-87.60272727272728,0.060197,31.35,,1660301803.15625,0
5.0,-65.08999999999999,0.060197,31.39,,1660301803.33125,0
5.0,-44.45636363636363,0.058916,31.39,,1660301803.50625,0
5.0,-21.234545454545454,,,,1660301803.68125,0
5.0,9.553636363636365,0.057636,31.39,,1660301803.85625,0
5.0,16.19909090909091,0.056355,31.39,,1660301804.03125,0
5.0,15.492499999999998,,,,1660301804.20625,0
5.0,0.6890909090909092,0.060197,31.37,,1660301804.38125,0
5.0,19.771818181818187,0.060197,31.37,,1660301804.55625,0
5.0,20.11,,,,1660301804.73125,0
5.0,5.670909090909092,0.060197,31.37,,1660301804.90625,0
5.0,-12.24,0.057636,31.37,,1660301805.08125,0
5.0,-16.44272727272727,0.057636,31.39,,1660301805.25625,0
5.0,14.412727272727274,,,,1660301805.43125,0
5.0,12.985454545454546,0.061478,31.39,,1660301805.60625,0
5.0,6.912727272727272,0.058916,31.39,,1660301805.78125,0
5.0,-7.431666666666666,,,,1660301805.95625,0
5.0,-1.8527272727272726,0.060197,31.39,,1660301806.13125,0
5.0,13.655454545454544,0.057636,31.39,,1660301806.30625,0
5.0,-5.4390909090909085,,,,1660301806.48125,0
5.0,-17.348181818181818,0.056355,31.39,,1660301806.65625,0
5.0,1.3933333333333333,0.058916,31.39,,1660301806.83125,0
5.0,7.923636363636365,0.058916,31.39,,1660301807.00625,0
5.0,8.833636363636364,,,,1660301807.18125,0
5.0,-5.965454545454546,0.058916,31.37,,1660301807.35625,0
5.0,-21.36636363636364,0.056355,31.37,,1660301807.53125,0
5.0,10.166666666666668,,,,1660301807.70625,0
5.0,13.15,0.056355,31.37,,1660301807.88125,0
5.0,-6.96090909090909,0.060197,31.37,,1660301808.05625,0
5.0,-25.313636363636366,,,,1660301808.23125,0
5.0,-1.6854545454545458,0.060197,31.39,,1660301808.40625,0
5.0,19.930000000000003,0.060197,31.39,,1660301808.58125,0
5.0,7.570000000000001,0.057636,31.39,,1660301808.75625,0
5.0,-16.829090909090908,,,,1660301808.93125,0
5.0,-13.656363636363636,0.056355,31.39,,1660301809.10625,0
5.0,13.994545454545454,0.057636,31.37,,1660301809.28125,0
5.0,28.134999999999994,,,,1660301809.45625,0
5.0,-2.295454545454546,0.060197,31.37,,1660301809.63125,0
5.0,-9.662727272727272,0.060197,31.37,,1660301809.80625,0
5.0,4.847272727272727,,,,1660301809.98125,0
5.0,-3.313636363636363,0.061478,31.37,,1660301810.15625,0
5.0,-6.999166666666667,0.057636,31.35,,1660301810.33125,0
5.0,-14.951818181818181,0.057636,31.35,,1660301810.50625,0
5.0,4.842727272727274,,,,1660301810.68125,0
5.0,12.87909090909091,0.061478,31.35,,1660301810.85625,0
5.0,-12.373636363636363,0.060197,31.35,,1660301811.03125,0
5.0,-15.234166666666667,,,,1660301811.20625,0
5.0,4.672727272727273,0.060197,31.37,,1660301811.38125,0
5.0,21.270909090909086,0.057636,31.37,,1660301811.55625,0
5.0,18.37545454545454,,,,1660301811.73125,0
5.0,-11.672727272727274,0.056355,31.37,,1660301811.90625,0
5.0,2.7383333333333337,0.058916,31.37,,1660301812.08125,0
5.0,21.782727272727275,0.060197,31.37,,1660301812.25625,0
5.0,10.631818181818183,,,,1660301812.43125,0
5.0,-3.880909090909091,0.060197,31.37,,1660301812.60625,0
5.0,-23.428181818181816,0.058916,31.37,,1660301812.78125,0
5.0,-0.21833333333333313,,,,1660301812.95625,0
5.0,12.348181818181816,0.057636,31.37,,1660301813.13125,0
5.0,20.78454545454545,0.057636,31.37,,1660301813.30625,0
5.0,16.726363636363637,,,,1660301813.48125,0
5.0,0.6827272727272726,0.060197,31.37,,1660301813.65625,0
5.0,11.463333333333333,0.060197,31.37,,1660301813.83125,0
5.0,0.3909090909090913,0.060197,31.37,,1660301814.00625,0
5.0,-6.916363636363636,,,,1660301814.18125,0
5.0,-14.31,0.057636,31.37,,1660301814.35625,0
5.0,-7.920909090909091,0.057636,31.37,,1660301814.53125,0
5.0,6.988333333333334,,,,1660301814.70625,0
5.0,0.23636363636363622,0.061478,31.37,,1660301814.88125,0
5.0,-14.548181818181819,0.061478,31.37,,1660301815.05625,0
5.0,-36.095454545454544,,,,1660301815.23125,0
5.0,3.4090909090909083,0.060197,31.37,,1660301815.40625,0
5.0,14.972499999999998,0.057636,31.37,,1660301815.58125,0
5.0,8.693636363636365,0.057636,31.37,,1660301815.75625,0
5.0,-23.420909090909092,,,,1660301815.93125,0
5.0,-14.340909090909093,0.058916,31.37,,1660301816.10625,0
5.0,10.39,0.060197,31.37,,1660301816.28125,0
5.0,15.600833333333332,,,,1660301816.45625,0
5.0,2.0772727272727276,0.061478,31.37,,1660301816.63125,0
5.0,-22.569090909090907,0.058916,31.37,,1660301816.80625,0
5.0,2.1827272727272726,,,,1660301816.98125,0
5.0,12.17181818181818,0.058916,31.37,,1660301817.15625,0
5.0,16.714166666666667,0.057636,31.35,,1660301817.33125,0
5.0,-8.058181818181819,0.061478,31.35,,1660301817.50625,0
5.0,-9.755454545454546,,,,1660301817.68125,0
5.0,4.801818181818181,0.060197,31.35,,1660301817.85625,0
5.0,8.942727272727273,0.060197,31.35,,1660301818.03125,0
5.0,-0.6716666666666665,,,,1660301818.20625,0
5.0,-22.77090909090909,0.057636,31.37,,1660301818.38125,0
5.0,-1.9072727272727272,0.056355,31.37,,1660301818.55625,0
5.0,10.261818181818182,,,,1660301818.73125,0
5.0,8.15,0.060197,31.37,,1660301818.90625,0
5.0,-3.2033333333333336,0.060197,31.37,,1660301819.08125,0
5.0,-12.007272727272726,0.060197,31.39,,1660301819.25625,0
5.0,3.7463636363636366,,,,1660301819.43125,0
5.0,10.482727272727274,0.057636,31.39,,1660301819.60625,0
5.0,2.5190909090909095,0.057636,31.39,,1660301819.78125,0
5.0,-12.627499999999998,,,,1660301819.95625,0
5.0,7.494545454545454,0.056355,31.39,,1660301820.13125,0
5.0,8.710909090909091,0.058916,31.35,,1660301820.30625,0
5.0,-5.298181818181818,,,,1660301820.48125,0
5.0,-26.003636363636364,0.061478,31.35,,1660301820.65625,0
5.0,-16.790000000000003,0.058916,31.35,,1660301820.83125,0
5.0,12.50090909090909,0.057636,31.35,,1660301821.00625,0
5.0,17.09,,,,1660301821.18125,0
5.0,-4.742727272727273,0.058916,31.35,,1660301821.35625,0
5.0,-23.26090909090909,0.060197,31.35,,1660301821.53125,0
5.0,3.9341666666666666,,,,1660301821.70625,0
5.0,17.782727272727268,0.060197,31.35,,1660301821.88125,0
5.0,10.289090909090909,0.056355,31.35,,1660301822.05625,0
5.0,-9.921818181818182,,,,1660301822.23125,0
5.0,5.761818181818182,0.057636,31.35,,1660301822.40625,0
5.0,13.464166666666666,0.057636,31.35,,1660301822.58125,0
5.0,3.8227272727272723,0.061478,31.35,,1660301822.75625,0
5.0,-22.848181818181818,,,,1660301822.93125,0
5.0,-29.890000000000008,0.060197,31.35,,1660301823.10625,0
5.0,3.335454545454546,0.060197,31.35,,1660301823.28125,0
5.0,14.370000000000003,,,,1660301823.45625,0
5.0,-2.554545454545455,0.057636,31.35,,1660301823.63125,0
5.0,15.538181818181819,0.057636,31.35,,1660301823.80625,0
5.0,63.63090909090908,,,,1660301823.98125,0
5.0,50.721818181818186,0.056355,31.35,,1660301824.15625,0
5.0,0.12916666666666762,0.061478,31.37,,1660301824.33125,0
5.0,-40.275454545454544,0.060197,31.37,,1660301824.50625,0
5.0,-54.85545454545454,,,,1660301824.68125,0
5.0,-10.744545454545454,0.060197,31.37,,1660301824.85625,0
5.0,13.450909090909091,0.057636,31.37,,1660301825.03125,0
5.0,-8.206666666666667,,,,1660301825.20625,0
5.0,-39.89090909090909,0.058916,31.37,,1660301825.38125,0
5.0,-19.043636363636363,0.060197,31.37,,1660301825.55625,0
5.0,22.04181818181818,,,,1660301825.73125,0
5.0,37.81727272727272,0.061478,31.37,,1660301825.90625,0
5.0,12.946666666666665,0.060197,31.37,,1660301826.08125,0
5.0,-16.335454545454546,0.057636,31.35,,1660301826.25625,0
5.0,-14.586363636363638,,,,1660301826.43125,0
5.0,3.067272727272727,0.057636,31.35,,1660301826.60625,0
5.0,10.345454545454546,0.060197,31.35,,1660301826.78125,0
5.0,2.5933333333333333,,,,1660301826.95625,0
5.0,-13.563636363636363,0.061478,31.35,,1660301827.13125,0
5.0,-6.326363636363637,0.061478,31.37,,1660301827.30625,0
5.0,5.457272727272727,,,,1660301827.48125,0
5.0,13.276363636363635,0.058916,31.37,,1660301827.65625,0
5.0,-0.7358333333333332,0.057636,31.37,,1660301827.83125,0
5.0,-20.274545454545457,0.061478,31.37,,1660301828.00625,0
5.0,2.7790909090909093,,,,1660301828.18125,0
5.0,12.033636363636363,0.061478,31.35,,1660301828.35625,0
5.0,6.159999999999999,0.060197,31.35,,1660301828.53125,0
5.0,-14.9275,,,,1660301828.70625,0
5.0,-23.527272727272727,0.058916,31.35,,1660301828.88125,0
5.0,1.7372727272727273,0.057636,31.35,,1660301829.05625,0
5.0,12.889999999999999,,,,1660301829.23125,0
5.0,3.3881818181818186,0.060197,31.35,,1660301829.40625,0
5.0,-16.234166666666667,0.061478,31.35,,1660301829.58125,0
5.0,-4.1454545454545455,0.060197,31.35,,1660301829.75625,0
5.0,6.238181818181818,,,,1660301829.93125,0
5.0,-4.996363636363637,0.058916,31.35,,1660301830.10625,0
5.0,-16.43,0.056355,31.35,,1660301830.28125,0
5.0,-22.746666666666666,,,,1660301830.45625,0
5.0,17.52090909090909,0.057636,31.35,,1660301830.63125,0
5.0,34.67818181818182,0.061478,31.35,,1660301830.80625,0
5.0,25.165454545454544,,,,1660301830.98125,0
5.0,0.8745454545454542,0.061478,31.35,,1660301831.15625,0
5.0,-1.4958333333333327,0.060197,31.35,,1660301831.33125,0
5.0,27.077272727272724,0.057636,31.35,,1660301831.50625,0
5.0,22.418181818181818,,,,1660301831.68125,0
5.0,-7.572727272727272,0.058916,31.35,,1660301831.85625,0
5.0,-35.03,0.060197,31.35,,1660301832.03125,0
5.0,-6.469166666666666,,,,1660301832.20625,0
5.0,12.677272727272726,0.060197,31.35,,1660301832.38125,0
5.0,13.782727272727273,0.061478,31.35,,1660301832.55625,0
5.0,-5.877272727272726,,,,1660301832.73125,0
5.0,-4.6881818181818184,0.058916,31.35,,1660301832.90625,0
5.0,8.309166666666668,0.057636,31.35,,1660301833.08125,0
5.0,4.677272727272727,0.060197,31.35,,1660301833.25625,0
5.0,-14.52,,,,1660301833.43125,0
5.0,-24.336363636363636,0.061478,31.35,,1660301833.60625,0
5.0,8.257272727272728,0.060197,31.35,,1660301833.78125,0
5.0,17.88333333333333,,,,1660301833.95625,0
5.0,-2.5890909090909093,0.058916,31.35,,1660301834.13125,0
5.0,-33.10545454545454,0.058916,31.33,,1660301834.30625,0
5.0,-18.847272727272728,,,,1660301834.48125,0
5.0,4.926363636363636,0.057636,31.33,,1660301834.65625,0
5.0,26.123333333333335,0.058916,31.33,,1660301834.83125,0
5.0,15.158181818181818,0.060197,31.33,,1660301835.00625,0
5.0,1.7618181818181817,,,,1660301835.18125,0
5.0,8.284545454545455,0.060197,31.35,,1660301835.35625,0
5.0,-1.7272727272727273,0.060197,31.35,,1660301835.53125,0
5.0,-5.048333333333333,,,,1660301835.70625,0
5.0,-12.7,0.057636,31.35,,1660301835.88125,0
5.0,13.796363636363639,0.061478,31.35,,1660301836.05625,0
5.0,15.881818181818181,,,,1660301836.23125,0
5.0,1.4027272727272726,0.062759,31.35,,1660301836.40625,0
5.0,-22.50916666666667,0.058916,31.35,,1660301836.58125,0
5.0,-9.844545454545454,0.057636,31.35,,1660301836.75625,0
5.0,9.729999999999999,,,,1660301836.93125,0
5.0,9.215454545454547,0.058916,31.35,,1660301837.10625,0
5.0,-13.989090909090908,0.060197,31.33,,1660301837.28125,0
5.0,-30.614166666666662,,,,1660301837.45625,0
5.0,4.549090909090908,0.060197,31.33,,1660301837.63125,0
5.0,10.046363636363637,0.061478,31.33,,1660301837.80625,0
5.0,13.70818181818182,,,,1660301837.98125,0
5.0,10.993636363636362,0.058916,31.33,,1660301838.15625,0
5.0,13.135833333333332,0.057636,31.35,,1660301838.33125,0
5.0,18.95636363636364,0.057636,31.35,,1660301838.50625,0
5.0,9.045454545454547,,,,1660301838.68125,0
5.0,-15.567272727272728,0.060197,31.35,,1660301838.85625,0
5.0,-33.36272727272728,0.062759,31.35,,1660301839.03125,0
5.0,-2.180833333333333,,,,1660301839.20625,0
5.0,9.831818181818182,0.061478,31.31,,1660301839.38125,0
5.0,6.634545454545455,0.058916,31.31,,1660301839.55625,0
5.0,-12.531818181818183,,,,1660301839.73125,0
5.0,-16.14909090909091,0.058916,31.31,,1660301839.90625,0
5.0,5.6674999999999995,0.061478,31.31,,1660301840.08125,0
5.0,9.54,0.061478,31.35,,1660301840.25625,0
5.0,-4.942727272727272,,,,1660301840.43125,0
5.0,-26.061818181818182,0.061478,31.35,,1660301840.60625,0
5.0,-4.756363636363638,0.060197,31.35,,1660301840.78125,0
5.0,14.040833333333333,,,,1660301840.95625,0
5.0,16.604545454545452,0.058916,31.35,,1660301841.13125,0
5.0,1.1163636363636367,0.062759,31.35,,1660301841.30625,0
5.0,-8.167272727272728,,,,1660301841.48125,0
5.0,4.3172727272727265,0.062759,31.35,,1660301841.65625,0
5.0,-4.2725,0.06404,31.35,,1660301841.83125,0
5.0,-20.30727272727273,0.058916,31.35,,1660301842.00625,0
5.0,-17.036363636363635,,,,1660301842.18125,0
5.0,13.676363636363636,0.060197,31.33,,1660301842.35625,0
5.0,24.256363636363634,0.058916,31.33,,1660301842.53125,0
5.0,2.7591666666666668,,,,1660301842.70625,0
5.0,-15.24909090909091,0.062759,31.33,,1660301842.88125,0
5.0,-11.403636363636366,0.061478,31.33,,1660301843.05625,0
5.0,18.81,,,,1660301843.23125,0
5.0,24.529999999999998,0.061478,31.33,,1660301843.40625,0
5.0,6.81,0.058916,31.33,,1660301843.58125,0
5.0,-17.095454545454544,0.060197,31.33,,1660301843.75625,0
5.0,8.751818181818182,,,,1660301843.93125,0
5.0,19.39,0.062759,31.33,,1660301844.10625,0
5.0,5.1890909090909085,0.061478,31.33,,1660301844.28125,0
5.0,-30.015833333333333,,,,1660301844.45625,0
5.0,-19.784545454545455,0.062759,31.33,,1660301844.63125,0
5.0,10.70909090909091,0.061478,31.33,,1660301844.80625,0
5.0,17.80090909090909,,,,1660301844.98125,0
5.0,-2.3854545454545457,0.058916,31.33,,1660301845.15625,0
5.0,-29.384166666666673,0.060197,31.35,,1660301845.33125,0
5.0,-5.7354545454545445,0.062759,31.35,,1660301845.50625,0
5.0,17.86909090909091,,,,1660301845.68125,0
5.0,17.826363636363634,0.061478,31.35,,1660301845.85625,0
5.0,4.24909090909091,0.062759,31.35,,1660301846.03125,0
5.0,-0.010833333333333103,,,,1660301846.20625,0
5.0,15.917272727272728,0.060197,31.33,,1660301846.38125,0
5.0,15.340909090909086,0.058916,31.33,,1660301846.55625,0
5.0,-2.75,,,,1660301846.73125,0
5.0,-28.336363636363636,0.060197,31.33,,1660301846.90625,0
5.0,-9.584166666666667,0.062759,31.33,,1660301847.08125,0
5.0,11.322727272727272,0.062759,31.33,,1660301847.25625,0
5.0,5.809090909090909,,,,1660301847.43125,0
5.0,-15.37,0.061478,31.33,,1660301847.60625,0
5.0,-9.77909090909091,0.058916,31.33,,1660301847.78125,0
5.0,-1.5041666666666664,,,,1660301847.95625,0
5.0,7.742727272727273,0.058916,31.33,,1660301848.13125,0
5.0,19.924545454545452,0.062759,31.31,,1660301848.30625,0
5.0,7.005454545454546,,,,1660301848.48125,0
5.0,-9.238181818181818,0.062759,31.31,,1660301848.65625,0
5.0,5.0475,0.061478,31.31,,1660301848.83125,0
5.0,0.5263636363636363,0.060197,31.31,,1660301849.00625,0
5.0,-5.045454545454546,,,,1660301849.18125,0
5.0,-20.06909090909091,0.058916,31.31,,1660301849.35625,0
5.0,-7.876363636363636,0.057636,31.31,,1660301849.53125,0
5.0,4.1000000000000005,,,,1660301849.70625,0
5.0,10.02090909090909,0.062759,31.31,,1660301849.88125,0
5.0,2.4645454545454544,0.061478,31.31,,1660301850.05625,0
5.0,-22.587272727272726,,,,1660301850.23125,0
5.0,-4.829999999999999,0.060197,31.33,,1660301850.40625,0
5.0,21.55583333333333,0.058916,31.33,,1660301850.58125,0
5.0,16.145454545454548,0.058916,31.33,,1660301850.75625,0
5.0,-6.531818181818182,,,,1660301850.93125,0
5.0,-8.452727272727273,0.061478,31.33,,1660301851.10625,0
5.0,8.44909090909091,0.061478,31.31,,1660301851.28125,0
5.0,9.355833333333335,,,,1660301851.45625,0
5.0,-19.688181818181818,0.061478,31.31,,1660301851.63125,0
5.0,-30.205454545454543,0.060197,31.31,,1660301851.80625,0
5.0,1.5381818181818183,,,,1660301851.98125,0
5.0,16.51090909090909,0.058916,31.31,,1660301852.15625,0
5.0,7.094999999999999,0.058916,31.33,,1660301852.33125,0
5.0,-23.96,0.062759,31.33,,1660301852.50625,0
5.0,-27.227272727272734,,,,1660301852.68125,0
5.0,3.838181818181818,0.06404,31.33,,1660301852.85625,0
5.0,14.975454545454546,0.061478,31.33,,1660301853.03125,0
5.0,15.9825,,,,1660301853.20625,0
5.0,-2.575454545454546,0.058916,31.31,,1660301853.38125,0
5.0,4.197272727272728,0.058916,31.31,,1660301853.55625,0
5.0,15.384545454545451,,,,1660301853.73125,0
5.0,1.7709090909090912,0.062759,31.31,,1660301853.90625,0
5.0,-38.556666666666665,0.062759,31.31,,1660301854.08125,0
5.0,-36.85363636363637,0.061478,31.31,,1660301854.25625,0
5.0,-6.1354545454545475,,,,1660301854.43125,0
5.0,3.594545454545455,0.058916,31.31,,1660301854.60625,0
5.0,-27.79181818181818,0.058916,31.31,,1660301854.78125,0
5.0,-92.84333333333332,,,,1660301854.95625,0
5.0,-24.12,0.060197,31.31,,1660301855.13125,0
5.0,52.05363636363636,0.061478,31.31,,1660301855.30625,0
5.0,44.89727272727272,,,,1660301855.48125,0
5.0,28.758181818181814,0.060197,31.31,,1660301855.65625,0
5.0,42.671666666666674,0.057636,31.31,,1660301855.83125,0
5.0,22.819090909090907,0.057636,31.31,,1660301856.00625,0
5.0,12.35090909090909,,,,1660301856.18125,0
