Unnamed: 0,ID,empatica_bvp,empatica_eda,empatica_temp,samsung_bvp,CL
0,0,0.1354454024,-0.0198960497,1.1039442748,0.0822628320,1
1,0,-1.4336996508,-0.0307925151,1.1285261872,-0.0198473190,1
2,0,0.0343064129,-0.0198960497,1.1285261872,-0.0360148676,1
3,0,0.3937110362,-0.0126298487,1.1285261872,-0.0966277698,1
4,0,-0.0519541368,-0.0089967482,1.0793623625,-0.1262255730,1
5,0,-0.7959047988,0.0018997171,1.0793623625,-0.1243250347,1
6,0,-0.1244542797,-0.0126298487,1.0793623625,-0.1582979679,1
7,0,-0.1313344831,-0.0162629492,1.0793623625,-0.1787725386,1
8,0,0.1075805788,-0.0235291503,1.1039442748,-0.3854122971,1
9,0,-0.1498250296,-0.0198960497,1.1039442748,-0.3990857946,1
10,0,0.8602174976,-0.0307925151,1.1285261872,-0.3894760761,1
11,0,-0.8038743620,-0.0235291503,1.1285261872,-0.4071809203,1
12,0,0.0193419706,-0.0235291503,1.1531080995,-0.3689950190,1
13,0,-0.4967592843,-0.0416918166,1.1531080995,-0.3749950119,1
14,0,-0.3607032628,-0.0198960497,1.1531080995,-0.3763344698,1
15,0,1.3303647218,-0.0235291503,1.1531080995,-0.3472036931,1
16,0,0.8120560740,-0.0271594146,1.1285261872,-0.3232491265,1
17,0,-0.3192500375,-0.0162629492,1.1039442748,-0.3518026066,1
18,0,-0.0377063880,-0.0271594146,1.1039442748,-0.2591497420,1
19,0,0.6393342963,-0.0271594146,1.1285261872,-0.3179658894,1
20,0,-2.6847499569,-0.0235291503,1.1285261872,-0.2780351253,1
21,0,-0.1018356112,-0.0344256156,1.1285261872,-0.2726124289,1
22,0,-0.2120048675,-0.0307925151,1.1776900119,-0.2536167754,1
23,0,0.7114904291,-0.0380587161,1.1776900119,-0.2771075588,1
24,0,0.5637380618,-0.0416918166,1.1531080995,-0.3091118457,1
25,0,-0.1160260306,-0.0344256156,1.1531080995,-0.2772989099,1
26,0,-0.7304855204,-0.0380587161,1.1531080995,-0.2849140362,1
27,0,0.0646653103,-0.0416918166,1.1531080995,-0.2735043198,1
28,0,-0.1596293194,-0.0671206840,1.1776900119,-0.2748989127,1
29,0,-1.1617309395,-0.0598544830,1.1776900119,-0.2843043071,1
30,0,0.5055430141,-0.0671206840,1.1776900119,-0.2738189140,1
31,0,-0.3004728101,-0.0707537845,1.1776900119,-0.2609108210,1
32,0,0.6240258438,-0.0707537845,1.1776900119,-0.3272545272,1
33,0,0.5571445394,-0.0707537845,1.1776900119,-0.3188902127,1
34,0,-1.0951362987,-0.0780199855,1.1776900119,-0.3381161361,1
35,0,0.3506237626,-0.0816502499,1.1776900119,-0.3282339855,1
36,0,-0.1187207827,-0.0816502499,1.1776900119,-0.3879420238,1
37,0,-0.2926752520,-0.0816502499,1.1776900119,-0.3542155768,1
38,0,1.3261505972,-0.0925495514,1.1776900119,-0.3039064464,1
39,0,0.1324066402,-0.1179784188,1.1776900119,-0.3513453099,1
40,0,0.4763594791,-0.1143453183,1.1285261872,-0.3189875098,1
41,0,0.8487504862,-0.1143453183,1.1285261872,-0.3193442662,1
42,0,-1.3322739804,-0.1107122178,1.1776900119,-0.2775745853,1
43,0,-0.0893652426,-0.1143453183,1.1776900119,-0.2545281257,1
44,0,-0.0820263532,-0.1216115193,1.1531080995,-0.2521054259,1
45,0,0.2755722166,-0.1143453183,1.1531080995,-0.2349000406,1
46,0,0.5030202671,-0.1179784188,1.1776900119,-0.2390124682,1
47,0,-0.1488790017,-0.1288777203,1.1776900119,-0.2450092179,1
48,0,0.2238560156,-0.1216115193,1.1776900119,-0.2097292592,1
49,0,0.7290922770,-0.1288777203,1.1776900119,-0.2437800302,1
50,0,-0.3829779212,-0.1325108208,1.1776900119,-0.3160945403,1
51,0,0.0771356789,-0.1325108208,1.1776900119,-0.2867075476,1
52,0,0.6612649445,-0.1288777203,1.1776900119,-0.2763713434,1
53,0,0.2758015510,-0.1361439213,1.1776900119,-0.2718697271,1
54,0,-0.7772709033,-0.1434072862,1.1776900119,-0.2853616032,1
55,0,-0.1892141939,-0.1397741857,1.1776900119,-0.2803832306,1
56,0,-0.6518218676,-0.1361439213,1.1776900119,-0.3728090686,1
57,0,0.7446874103,-0.1506734872,1.1776900119,-0.3984760656,1
58,0,0.0401545858,-0.1652030530,1.1776900119,-0.3671917778,1
59,0,0.6417136942,-0.1652030530,1.1776900119,-0.3013994223,1
60,0,1.2649167873,-0.1506734872,1.1899809681,-0.2485702949,1
61,0,-2.1299762313,-0.1470403867,1.1776900119,-0.2442178675,1
62,0,0.2665706058,-0.1506734872,1.1776900119,-0.2195465450,1
63,0,-0.4588894926,-0.1470403867,1.1531080995,-0.1697011979,1
64,0,0.3484450258,-0.1434072862,1.1531080995,-0.1766741627,1
65,0,0.9647679155,-0.1325108208,1.1776900119,-0.2118665540,1
66,0,1.3155722845,-0.1361439213,1.1776900119,-0.2260070780,1
67,0,-0.8292451119,-0.1288777203,1.1776900119,-0.2283130212,1
68,0,1.0915069892,-0.1252446198,1.1776900119,-0.2336189610,1
69,0,0.1163528380,-0.1288777203,1.1776900119,-0.3337799250,1
70,0,0.3020609996,-0.1288777203,1.1776900119,-0.2907129483,1
71,0,-0.0493740605,-0.1397741857,1.1776900119,-0.2721648619,1
72,0,1.2034249697,-0.1288777203,1.1776900119,-0.2610729829,1
73,0,-0.2655844512,-0.1361439213,1.1776900119,-0.2148633072,1
74,0,-0.5742475747,-0.1325108208,1.1899809681,-0.2312319367,1
75,0,0.3611160727,-0.1325108208,1.1899809681,-0.3329561422,1
76,0,-0.6123467008,-0.1434072862,1.1899809681,-0.3571377355,1
77,0,0.6360375265,-0.1434072862,1.1776900119,-0.3001021265,1
78,0,0.0383485324,-0.1288777203,1.1776900119,-0.2815767428,1
79,0,-0.0595223605,-0.1397741857,1.1531080995,-0.3845820278,1
80,0,-0.8115285882,-0.1506734872,1.1776900119,-0.4150749651,1
81,0,0.9578017096,-0.1397741857,1.1776900119,-0.4204068508,1
82,0,0.4908939087,-0.1506734872,1.1776900119,-0.4087701076,1
83,0,-2.2350713377,-0.1397741857,1.1899809681,-0.3717290698,1
84,0,-1.3210936500,-0.1325108208,1.1899809681,-0.3867841874,1
85,0,-0.8408554551,-0.1361439213,1.1531080995,-0.4043009236,1
86,0,1.4139591927,-0.1361439213,1.1531080995,-0.4477538458,1
87,0,1.8494187364,-0.1288777203,1.1776900119,-0.4050890308,1
88,0,-1.7098251401,-0.1216115193,1.1776900119,-0.4022479531,1
89,0,0.2915400162,-0.1179784188,1.1531080995,-0.4645116641,1
90,0,-0.5606591731,-0.1252446198,1.1531080995,-0.5029862137,1
91,0,0.7130384749,-0.1325108208,1.1776900119,-0.4271917077,1
92,0,-0.2989534376,-0.1252446198,1.1776900119,-0.3531582807,1
93,0,0.3713790485,-0.1288777203,1.1776900119,-0.3463572076,1
94,0,0.5236608772,-0.1325108208,1.1776900119,-0.4032306546,1
95,0,-0.7435865800,-0.1361439213,1.1531080995,-0.4922900100,1
96,0,0.2999395921,-0.1397741857,1.1531080995,-0.4756651645,1
97,0,0.4460865843,-0.1434072862,1.1531080995,-0.4782467832,1
98,0,0.5301970704,-0.1543065877,1.1531080995,-0.4805884020,1
99,0,-1.1818555344,-0.1543065877,1.1531080995,-0.5486964305,1
100,0,0.5953009948,-0.1543065877,1.1531080995,-0.5317278017,1
101,0,-0.0139696864,-0.1615727887,1.1531080995,-0.5232856494,1
102,0,0.3454062808,-0.1652030530,1.1531080995,-0.5399040084,1
103,0,-0.2808929037,-0.1579396882,1.1531080995,-0.5239245676,1
104,0,-1.0839559682,-0.1833685556,1.1776900119,-0.6140087866,1
105,0,0.8541973196,-0.1833685556,1.1531080995,-0.6204725629,1
106,0,-0.5202379783,-0.1688361536,1.1531080995,-0.5305959112,1
107,0,-0.6288305157,-0.1652030530,1.1531080995,-0.4939408189,1
108,0,0.0900360602,-0.1724692541,1.1531080995,-0.4590695083,1
109,0,0.8307472817,-0.1724692541,1.1531080995,-0.4192976629,1
110,0,-0.2642084106,-0.1833685556,1.1285261872,-0.3801971680,1
111,0,0.0365998083,-0.1906347566,1.1285261872,-0.2927432162,1
112,0,0.2933460696,-0.1978981214,1.1285261872,-0.2626589270,1
113,0,-0.4150568693,-0.2015312219,1.1285261872,-0.2635248720,1
114,0,0.1306292600,-0.2233269888,1.1285261872,-0.3095691425,1
115,0,-0.0223692623,-0.2124305235,1.1531080995,-0.3235896666,1
116,0,0.5474835814,-0.2124305235,1.1531080995,-0.3048891479,1
117,0,0.0232407582,-0.2124305235,1.1531080995,-0.2706048637,1
118,0,-0.0731967647,-0.2015312219,1.1531080995,-0.2344686897,1
119,0,0.0121177571,-0.2233269888,1.1285261872,-0.2034795368,1
120,0,0.9925467366,-0.2196938883,1.1039442748,-0.1576428336,1
121,0,0.6516326598,-0.2124305235,1.1039442748,-0.1410082584,1
122,0,0.9775822942,-0.2160636240,1.1531080995,-0.1213866597,1
123,0,0.5839773325,-0.2160636240,1.1531080995,-0.1036818156,1
124,0,-0.8762885024,-0.2269600893,1.1531080995,-0.1064158664,1
125,0,0.6956659614,-0.2196938883,1.1531080995,-0.1019110068,1
126,0,-2.5241832108,-0.1978981214,1.1285261872,-0.0712364481,1
127,0,0.1594401116,-0.1942650209,1.1285261872,-0.0468408009,1
128,0,-0.0148870411,-0.1978981214,1.1039442748,-0.0442721553,1
129,0,-0.5820738060,-0.2015312219,1.1039442748,-0.0547964673,1
130,0,0.5436994695,-0.1978981214,1.1039442748,-0.0882699417,1
131,0,1.1424491674,-0.2087974230,1.1039442748,-0.0746418495,1
132,0,-1.3280598559,-0.2015312219,1.1285261872,-0.0723456360,1
133,0,0.3542358694,-0.2160636240,1.1285261872,-0.0699845577,1
134,0,0.3134133352,-0.2015312219,1.1285261872,-0.0838494063,1
135,0,0.1808547446,-0.2233269888,1.1039442748,-0.1710925476,1
136,0,-0.4788707556,-0.2124305235,1.1039442748,-0.2497670502,1
137,0,-0.4940358762,-0.2124305235,1.1285261872,-0.1839228029,1
138,0,0.9119623546,-0.2124305235,1.1285261872,-0.1507704092,1
139,0,-0.1542971618,-0.2051643225,1.1039442748,-0.1438655524,1
140,0,0.4558335448,-0.2087974230,1.1039442748,-0.2985680743,1
141,0,0.5448175026,-0.2124305235,1.1039442748,-0.2731832391,1
142,0,0.6761433843,-0.2233269888,1.0793623625,-0.2900610572,1
143,0,0.9275288148,-0.2233269888,1.1039442748,-0.2642870332,1
144,0,-1.5153447192,-0.2196938883,1.1039442748,-0.2462870543,1
145,0,-0.5388145274,-0.2305931898,1.0793623625,-0.2430373284,1
146,0,0.8503845345,-0.2342262903,1.0793623625,-0.2259746456,1
147,0,-0.3913201677,-0.2305931898,1.0793623625,-0.3355474905,1
148,0,0.2964421611,-0.2342262903,1.1039442748,-0.3183939970,1
149,0,0.2244580334,-0.2305931898,1.1039442748,-0.2885529508,1
150,0,0.4551455245,-0.2451255919,1.0793623625,-0.2639594661,1
151,0,-0.1182047674,-0.2451255919,1.0547804501,-0.3764771724,1
152,0,0.3905862714,-0.2414924913,1.0547804501,-0.2613843339,1
153,0,1.0051891102,-0.2523889567,1.0547804501,-0.2539248832,1
154,0,-0.4792434390,-0.2669213587,1.0793623625,-0.2134524981,1
155,0,0.1775006454,-0.2523889567,1.0793623625,-0.1975865707,1
156,0,-0.7269880894,-0.2632882582,1.0793623625,-0.2632135210,1
157,0,0.4770474994,-0.2669213587,1.0793623625,-0.3043053648,1
158,0,-0.9791475427,-0.2596551577,1.0793623625,-0.2492221860,1
159,0,0.8706524612,-0.2596551577,1.0793623625,-0.2344751762,1
160,0,0.4158136895,-0.2669213587,1.0793623625,-0.2206849220,1
161,0,-0.7823737265,-0.2705544592,1.0547804501,-0.2611962260,1
162,0,0.5827732969,-0.2705544592,1.0547804501,-0.2772567478,1
163,0,0.0974896081,-0.2705544592,1.0547804501,-0.2528351547,1
164,0,-0.5957482102,-0.2632882582,1.0547804501,-0.2503443468,1
165,0,-0.8502584054,-0.2705544592,1.0301985378,-0.1709887639,1
166,0,0.5928069211,-0.2814509246,1.0301985378,-0.1463369008,1
167,0,0.5662034623,-0.2669213587,1.0301985378,-0.1217758485,1
168,0,1.5072719508,-0.2741875597,1.0301985378,-0.1089034311,1
169,0,-0.9184870773,-0.2705544592,1.0301985378,-0.0994558746,1
170,0,0.1760386022,-0.2705544592,1.0301985378,-0.0871769700,1
171,0,0.3420235084,-0.2741875597,1.0301985378,-0.1271174638,1
172,0,-0.8375300292,-0.2741875597,1.0301985378,-0.1277304361,1
173,0,0.3264570483,-0.2778178241,0.9933256693,-0.1073045140,1
174,0,0.5041383002,-0.2923502261,0.9933256693,-0.0995596582,1
175,0,1.3156582871,-0.2887171256,0.9933256693,-0.1378006946,1
176,0,-2.4282903764,-0.3032466915,0.9933256693,-0.1523920289,1
177,0,0.4264780047,-0.3068797920,0.9933256693,-0.1427563645,1
178,0,0.5706755945,-0.3068797920,0.9933256693,-0.1758860555,1
179,0,0.4040313412,-0.3032466915,0.9810347131,-0.1768038923,1
180,0,-0.7979401866,-0.3068797920,0.9810347131,-0.2024352136,1
181,0,-3.2688792225,-0.3105128925,0.9933256693,-0.2269378877,1
182,0,0.5812825804,-0.3105128925,0.9933256693,-0.2328081511,1
183,0,-1.2484215019,-0.2959833266,0.9933256693,-0.2330481508,1
184,0,0.6596308962,-0.3032466915,0.9933256693,-0.2913680827,1
185,0,-0.0852944498,-0.3068797920,0.9933256693,-0.2827897143,1
186,0,-0.8260056886,-0.3141459930,0.9933256693,-0.3033226633,1
187,0,0.1992592886,-0.3032466915,0.9933256693,-0.2918221362,1
188,0,0.3372073661,-0.3141459930,0.9810347131,-0.2965215902,1
189,0,-4.0187353868,-0.3250452945,0.9564528008,-0.3027421234,1
190,0,-0.2673045021,-0.3177790935,0.9810347131,-0.3080188740,1
191,0,0.4438505182,-0.3286783950,0.9810347131,-0.2951075378,1
192,0,0.6017511854,-0.3323086594,0.9564528008,-0.3137723808,1
193,0,0.2940340899,-0.3250452945,0.9564528008,-0.3620966486,1
194,0,-0.3687875017,-0.3286783950,0.9810347131,-0.3546988195,1
195,0,0.6634150081,-0.3250452945,0.9810347131,-0.3119885991,1
196,0,0.1204809601,-0.3395748604,0.9810347131,-0.3005788827,1
197,0,0.5498056500,-0.3323086594,0.9810347131,-0.3187345372,1
198,0,0.0438240218,-0.3432079609,0.9810347131,-0.3157896757,1
199,0,0.0060115766,-0.3504741619,0.9564528008,-0.2607551455,1
200,0,-0.9334801929,-0.3432079609,0.9564528008,-0.2487940784,1
201,0,-0.7975961764,-0.3432079609,0.9564528008,-0.2974005081,1
202,0,0.3487317067,-0.3432079609,0.9564528008,-0.2867010611,1
203,0,0.2608944380,-0.3432079609,0.9564528008,-0.3156826488,1
204,0,0.0931321517,-0.3577375268,0.9564528008,-0.2996934783,1
205,0,0.4405824216,-0.3504741619,0.9564528008,-0.2626135217,1
206,0,-1.5410881525,-0.3541072624,0.9564528008,-0.2260168077,1
207,0,-0.9397583785,-0.3577375268,0.9318708884,-0.1338309695,1
208,0,0.1159228253,-0.3686368283,0.9318708884,-0.1309509729,1
209,0,0.7207787036,-0.3650037278,0.9318708884,-0.1106969425,1
210,0,0.2523515303,-0.3759030293,0.9072889761,-0.1244969264,1
211,0,0.3539778618,-0.3722699288,0.9072889761,-0.1264136809,1
212,0,0.6680304721,-0.3686368283,0.9072889761,-0.1201996341,1
213,0,0.5405173755,-0.3759030293,0.9072889761,-0.1099542407,1
214,0,-0.2348815437,-0.3759030293,0.9072889761,-0.1218601727,1
215,0,-2.7466717871,-0.3795361298,0.9318708884,-0.1258526005,1
216,0,0.4676732224,-0.3831692303,0.9318708884,-0.1216785513,1
217,0,0.2513194998,-0.3904325952,0.9318708884,-0.1358547509,1
218,0,1.7977885379,-0.3867994946,0.9318708884,-0.1187401763,1
219,0,-0.5616052010,-0.3976987962,0.9072889761,-0.1974568411,1
220,0,1.3876424148,-0.3976987962,0.9072889761,-0.1931109002,1
221,0,-0.4072306380,-0.3904325952,0.9072889761,-0.2004665673,1
222,0,-1.8616196268,-0.3976987962,0.9072889761,-0.1844222617,1
223,0,0.3507097652,-0.3976987962,0.8827070637,-0.1665001205,1
224,0,0.4291440835,-0.4013318967,0.8827070637,-0.1842017214,1
225,0,0.4046333590,-0.4085980977,0.8827070637,-0.1819282106,1
226,0,-0.7230319725,-0.4013318967,0.9072889761,-0.1759574068,1
227,0,-0.4068866279,-0.4122311982,0.9072889761,-0.1963281938,1
228,0,-0.0456186219,-0.4013318967,0.8827070637,-0.3003550992,1
229,0,0.6124155006,-0.4049649972,0.9072889761,-0.2697194593,1
230,0,1.9684462546,-0.4013318967,0.9072889761,-0.2752653988,1
231,0,0.8816034573,-0.4049649972,0.9072889761,-0.2621432520,1
232,0,-0.7456793143,-0.4085980977,0.8581251514,-0.2726189154,1
233,0,0.5309710933,-0.4085980977,0.8581251514,-0.2525659659,1
234,0,-2.8168498615,-0.4231276635,0.9072889761,-0.2301519380,1
235,0,-0.4184969710,-0.4231276635,0.8827070637,-0.2764394515,1
236,0,-0.0653992066,-0.4267607641,0.8827070637,-0.2724502669,1
237,0,-0.4869549945,-0.4194945630,0.8581251514,-0.3362155978,1
238,0,0.5893668194,-0.4231276635,0.8581251514,-0.2976729402,1
239,0,0.3197201768,-0.4303938646,0.8581251514,-0.2994242895,1
240,0,0.4950220307,-0.4194945630,0.8581251514,-0.2747140481,1
241,0,-0.0227992750,-0.4267607641,0.8581251514,-0.2938588906,1
242,0,-0.4510059319,-0.4412903299,0.8827070637,-0.2591529852,1
243,0,-3.9296367532,-0.4376600656,0.8581251514,-0.2537951536,1
244,0,0.1128267338,-0.4412903299,0.8581251514,-0.2248946469,1
245,0,-0.4000064245,-0.4521896314,0.8581251514,-0.3115604915,1
246,0,-0.1989898104,-0.4449234304,0.8581251514,-0.2474448908,1
247,0,0.1142027745,-0.4521896314,0.8335432390,-0.2288968043,1
248,0,0.8638869336,-0.4485565309,0.8335432390,-0.1834265872,1
249,0,0.2440952863,-0.4449234304,0.8335432390,-0.1755065965,1
250,0,1.5964565869,-0.4376600656,0.8335432390,-0.1114623470,1
251,0,-1.5469363254,-0.4703522978,0.8581251514,-0.0765326581,1
252,0,0.5634800542,-0.4667220335,0.8335432390,-0.1777703776,1
253,0,-0.4034465262,-0.4776184988,0.8335432390,-0.1748255162,1
254,0,1.4194060260,-0.4739853983,0.7966703705,-0.1857876655,1
255,0,-0.3131438570,-0.4776184988,0.7966703705,-0.1375833976,1
256,0,0.6761433843,-0.4812515993,0.7966703705,-0.1288428672,1
257,0,-0.7016460127,-0.4776184988,0.7966703705,-0.1113391039,1
258,0,-1.0352785294,-0.4885178003,0.7966703705,-0.0790721146,1
259,0,0.3416221689,-0.4739853983,0.7966703705,-0.0528861993,1
260,0,0.0407566036,-0.4848846998,0.7966703705,-0.0605726768,1
261,0,1.3694672052,-0.4921509008,0.7720884581,-0.0423229684,1
262,0,-0.7002699721,-0.4812515993,0.7966703705,-0.0507067424,1
263,0,-0.2455458589,-0.4921509008,0.7966703705,-0.0512321471,1
264,0,0.6572514983,-0.4848846998,0.7966703705,-0.1907757678,1
265,0,0.5422374263,-0.4921509008,0.7966703705,-0.1901822550,1
266,0,0.0112004024,-0.4957811652,0.7966703705,-0.1881584736,1
267,0,-0.2448578386,-0.4994142657,0.7966703705,-0.2748729668,1
268,0,0.1867029174,-0.4957811652,0.7720884581,-0.3156826488,1
269,0,0.6181776710,-0.5030473662,0.7597975020,-0.2724567534,1
270,0,0.0143538232,-0.4957811652,0.7597975020,-0.2887021398,1
271,0,0.3714937071,-0.5066804667,0.7720884581,-0.2623800084,1
272,0,0.3231889517,-0.4812515993,0.7597975020,-0.2052373725,1
273,0,-1.6899585529,-0.5139466677,0.7597975020,-0.1857519899,1
274,0,-0.0973634790,-0.5175797682,0.7597975020,-0.1681249835,1
275,0,0.5058870243,-0.5212128687,0.7597975020,-0.1564720241,1
276,0,1.4880933839,-0.5248431331,0.7597975020,-0.1604385060,1
277,0,-0.0257233614,-0.5284762336,0.7597975020,-0.1646417443,1
278,0,-0.8512330894,-0.5212128687,0.7597975020,-0.1758374069,1
279,0,0.5237468798,-0.5321093341,0.7597975020,-0.1633412053,1
280,0,-0.8275537343,-0.5212128687,0.7597975020,-0.1730774101,1
281,0,0.6005471498,-0.5357424346,0.7597975020,-0.2097746645,1
282,0,-1.9953535797,-0.5321093341,0.7597975020,-0.1491812218,1
283,0,-0.3846979720,-0.5321093341,0.7597975020,-0.1549185124,1
284,0,0.2864658662,-0.5321093341,0.7597975020,-0.1392893415,1
285,0,0.2234546762,-0.5430086356,0.7352155896,-0.1345088066,1
286,0,0.6306480396,-0.5357424346,0.7352155896,-0.1118969411,1
287,0,0.0812638009,-0.5393755351,0.7352155896,-0.1635812050,1
288,0,-0.0376490415,-0.5393755351,0.7352155896,-0.1280709762,1
289,0,0.3097725551,-0.5393755351,0.7352155896,-0.1247531423,1
290,0,0.3210388881,-0.5539051010,0.7352155896,-0.1076937028,1
291,0,-0.1039283454,-0.5502720005,0.7352155896,-0.1827292907,1
292,0,-0.5806117628,-0.5575382015,0.7352155896,-0.1835855060,1
293,0,-0.0099848962,-0.5611713020,0.7106336773,-0.1777249723,1
294,0,0.2106116241,-0.5539051010,0.7106336773,-0.2696740540,1
295,0,1.3070580329,-0.5539051010,0.7106336773,-0.2268373473,1
296,0,0.4388623708,-0.5648044025,0.7352155896,-0.1966006259,1
297,0,0.0536569849,-0.5575382015,0.7352155896,-0.1543249996,1
298,0,0.0110283973,-0.5575382015,0.7352155896,-0.1302601629,1
299,0,0.6164576201,-0.5720706035,0.6860517649,-0.1518828403,1
300,0,0.0440533734,-0.5684375030,0.6860517649,-0.0901607503,1
301,0,-0.8529531403,-0.5720706035,0.6614698526,-0.0477683674,1
302,0,-0.5555850231,-0.5684375030,0.6860517649,0.0100521055,1
303,0,-0.5552123397,-0.5793339684,0.6860517649,-0.0118786796,1
304,0,-0.1669395355,-0.5793339684,0.6860517649,0.0013991427,1
305,0,0.7919888085,-0.5902332699,0.6614698526,0.0100877812,1
306,0,0.7801777870,-0.5902332699,0.6614698526,0.0058942726,1
307,0,-0.0531581724,-0.5793339684,0.6614698526,0.0066823798,1
308,0,-0.3811431945,-0.5902332699,0.6860517649,0.0012564402,1
309,0,-0.0317435394,-0.5938663704,0.6860517649,0.0061926506,1
310,0,0.4621690597,-0.5938663704,0.6860517649,-0.0740191475,1
311,0,0.1915190598,-0.6011325714,0.6860517649,-0.1735022745,1
312,0,0.8817754624,-0.5974994709,0.6860517649,-0.1746633542,1
313,0,-0.8702109952,-0.6011325714,0.6860517649,-0.1846687479,1
314,0,0.6269212570,-0.6011325714,0.6860517649,-0.1757952448,1
315,0,0.3519138007,-0.6083959363,0.6614698526,-0.1893098236,1
316,0,-0.0129949852,-0.6047656719,0.6614698526,-0.2482686736,1
317,0,-0.1636141096,-0.6120290368,0.6614698526,-0.2495984018,1
318,0,-0.6410428766,-0.6192952378,0.6614698526,-0.3234339911,1
319,0,0.2256620690,-0.6229283383,0.6614698526,-0.3079053606,1
320,0,-0.1270343560,-0.6192952378,0.6614698526,-0.3621193513,1
321,0,0.4578976058,-0.6229283383,0.6368879402,-0.3234145317,1
322,0,-0.6483817660,-0.6192952378,0.6368879402,-0.3392318105,1
323,0,2.0363882628,-0.6229283383,0.6368879402,-0.3138437321,1
324,0,0.3820433637,-0.6265614388,0.6368879402,-0.3139767049,1
325,0,0.2620411443,-0.6265614388,0.6368879402,-0.3291064169,1
326,0,0.8889136734,-0.6338248036,0.6368879402,-0.3146448122,1
327,0,2.2685951264,-0.6410910046,0.6368879402,-0.3242739902,1
328,0,-0.2584462403,-0.6410910046,0.6368879402,-0.3199799411,1
329,0,-0.0440132297,-0.6410910046,0.6368879402,-0.3225129111,1
330,0,0.3179427966,-0.6483572057,0.6368879402,-0.3166167018,1
331,0,0.5090404451,-0.6410910046,0.6123060279,-0.2994113165,1
332,0,-0.7056021297,-0.6483572057,0.6368879402,-0.3041756353,1
333,0,0.8222617033,-0.6519903062,0.6368879402,-0.2929864592,1
334,0,0.6248858692,-0.6447241051,0.6368879402,-0.3295150651,1
335,0,0.0856212573,-0.6447241051,0.6368879402,-0.4281646795,1
336,0,0.6235958311,-0.6556234067,0.6123060279,-0.3754458222,1
337,0,0.2604070960,-0.6592565072,0.6368879402,-0.3159939998,1
338,0,0.3627787943,-0.6519903062,0.6123060279,-0.3193345365,1
339,0,-0.3635413467,-0.6592565072,0.6123060279,-0.2533054245,1
340,0,-0.6467190444,-0.6592565072,0.6123060279,-0.2355065263,1
341,0,0.1405195524,-0.6628867715,0.6123060279,-0.2012676474,1
342,0,0.6332281158,-0.6592565072,0.6123060279,-0.1462947387,1
343,0,1.0866335176,-0.6628867715,0.6123060279,-0.1601401280,1
344,0,1.8232739636,-0.6665198720,0.5754331594,-0.1660622832,1
345,0,-0.4043925541,-0.6737860730,0.5754331594,-0.1582168870,1
346,0,-2.8415325910,-0.6628867715,0.5754331594,-0.1693087659,1
347,0,-0.2333908273,-0.6628867715,0.5754331594,-0.1599876957,1
348,0,0.8587267811,-0.6665198720,0.6123060279,-0.1709368721,1
349,0,-0.2426791018,-0.6592565072,0.6123060279,-0.1777509182,1
350,0,-0.0688106350,-0.6592565072,0.5754331594,-0.1436612283,1
351,0,0.1073225711,-0.6665198720,0.5754331594,-0.1607044516,1
352,0,-0.7492627478,-0.6628867715,0.5631422032,-0.1521585157,1
353,0,2.0580609034,-0.6628867715,0.5631422032,-0.1352644814,1
354,0,0.0060115766,-0.6701529725,0.5754331594,-0.0649478068,1
355,0,-0.4384782340,-0.6737860730,0.5754331594,-0.0688623968,1
356,0,-0.8732784134,-0.6774191735,0.5631422032,-0.0737402289,1
357,0,0.1191622487,-0.6737860730,0.5631422032,-0.0319056832,1
358,0,0.7439993900,-0.6846853745,0.5631422032,-0.0255748798,1
359,0,0.0430786722,-0.6846853745,0.5631422032,-0.0123878682,1
360,0,-0.9275460175,-0.6774191735,0.5385602908,-0.0409640510,1
361,0,0.3209528856,-0.6737860730,0.5385602908,-0.0464808013,1
362,0,-0.3691028386,-0.6883184751,0.5385602908,-0.0943607454,1
363,0,0.6083733812,-0.6883184751,0.5631422032,-0.1045542470,1
364,0,-2.4440288416,-0.6846853745,0.5631422032,-0.1027477626,1
365,0,-0.2539741081,-0.6919487394,0.5631422032,-0.1204493635,1
366,0,0.8544839833,-0.6846853745,0.5631422032,-0.1904579304,1
367,0,-0.3880233979,-0.6883184751,0.5631422032,-0.2065541278,1
368,0,0.8411822625,-0.6774191735,0.5631422032,-0.1446471731,1
369,0,-0.2105141511,-0.6774191735,0.5631422032,-0.1428082563,1
370,0,-0.8055370835,-0.6810522740,0.5631422032,-0.1255217900,1
371,0,-0.2909552012,-0.6883184751,0.5631422032,-0.2012287286,1
372,0,0.2236266812,-0.6810522740,0.5631422032,-0.2042968331,1
373,0,0.4448825487,-0.6519903062,0.5631422032,-0.1870006371,1
374,0,0.0784257170,-0.6919487394,0.5631422032,-0.1901109037,1
375,0,0.0015681176,-0.6992149404,0.5385602908,-0.2157649278,1
376,0,0.5546791217,-0.6955818399,0.5631422032,-0.3324372239,1
377,0,0.3919909853,-0.6919487394,0.5385602908,-0.3351226261,1
378,0,0.0284582401,-0.6919487394,0.5139783785,-0.3269691221,1
379,0,0.5689842169,-0.6955818399,0.5139783785,-0.3039291491,1
380,0,1.7006916679,-0.7028480409,0.5385602908,-0.2703389181,1
381,0,0.1497218244,-0.7028480409,0.5139783785,-0.2257119432,1
382,0,0.1839508361,-0.6955818399,0.5139783785,-0.3442847776,1
383,0,-0.4298206333,-0.7028480409,0.5139783785,-0.3533885507,1
384,0,-4.0126292063,-0.7064811414,0.5385602908,-0.3360826250,1
385,0,1.0637568414,-0.7064811414,0.5139783785,-0.2766210729,1
386,0,-1.7066143728,-0.7101142419,0.5385602908,-0.2314459906,1
387,0,-0.8555618898,-0.7101142419,0.5385602908,-0.2268373473,1
388,0,0.3225869339,-0.7173776068,0.5139783785,-0.2630027104,1
389,0,0.4561202085,-0.7137473424,0.4893964661,-0.2280081567,1
390,0,-2.8943381519,-0.7210107073,0.4893964661,-0.1855411793,1
391,0,-0.8168320726,-0.6846853745,0.5139783785,-0.1800211858,1
392,0,0.0272542045,-0.7173776068,0.4893964661,-0.3109377895,1
393,0,0.9075762250,-0.7210107073,0.4893964661,-0.3030859068,1
394,0,0.5612439881,-0.7173776068,0.4893964661,-0.2031973749,1
395,0,-0.5499088553,-0.7246438078,0.4893964661,-0.1980535971,1
396,0,0.0994963398,-0.7210107073,0.4893964661,-0.1777574047,1
397,0,-0.4382775557,-0.7173776068,0.4893964661,-0.1584698596,1
398,0,0.6514606547,-0.7246438078,0.4893964661,-0.1216104433,1
399,0,0.8159835177,-0.7137473424,0.4893964661,-0.1150039645,1
400,0,1.0353760025,-0.7137473424,0.4893964661,-0.0931769630,1
401,0,-2.5469165552,-0.7246438078,0.4893964661,-0.0973445257,1
402,0,-0.7820870456,-0.7246438078,0.4893964661,-0.0860126470,1
403,0,0.0163318816,-0.7173776068,0.4893964661,-0.1203715258,1
404,0,-0.2340215183,-0.7246438078,0.4893964661,-0.1664839043,1
405,0,0.6081153735,-0.7173776068,0.4893964661,-0.1565304024,1
406,0,0.4270513493,-0.7137473424,0.4893964661,-0.1521909481,1
407,0,0.3008569640,-0.7173776068,0.4648145538,-0.2159303330,1
408,0,0.2422605596,-0.7173776068,0.4648145538,-0.2058860204,1
409,0,1.5840148916,-0.7173776068,0.4648145538,-0.1979271108,1
410,0,0.0337903977,-0.7246438078,0.4648145538,-0.2111206089,1
411,0,-0.4748286361,-0.7210107073,0.4648145538,-0.1985530560,1
412,0,-0.2849923525,-0.7282769083,0.4648145538,-0.3628944856,1
413,0,-0.2347095386,-0.7210107073,0.4402326415,-0.3341918164,1
414,0,0.0978909647,-0.7319100088,0.4402326415,-0.3132307598,1
415,0,0.3439728936,-0.7210107073,0.4648145538,-0.3085280626,1
416,0,-0.2598222809,-0.7246438078,0.4648145538,-0.3555128726,1
417,0,1.0455243025,-0.7319100088,0.4648145538,-0.4197030678,1
418,0,-2.5816042357,-0.7246438078,0.4402326415,-0.2952891592,1
419,0,0.7137264952,-0.7319100088,0.4648145538,-0.3655150230,1
420,0,-0.5882373158,-0.7282769083,0.4648145538,-0.3167950800,1
421,0,0.4463159187,-0.7246438078,0.4402326415,-0.2365670656,1
422,0,-0.1457829102,-0.7246438078,0.4402326415,-0.2712437819,1
423,0,0.4441945284,-0.7355431093,0.4648145538,-0.3153712979,1
424,0,0.2796716654,-0.7355431093,0.4402326415,-0.2501692119,1
425,0,-0.3342431531,-0.7428093103,0.4402326415,-0.2504967791,1
426,0,-0.1410527703,-0.7355431093,0.4402326415,-0.2299768031,1
427,0,-0.6844455043,-0.7391762098,0.4402326415,-0.2365022009,1
428,0,0.1924364145,-0.7355431093,0.4402326415,-0.2123043913,1
429,0,-2.9403495119,-0.7428093103,0.4402326415,-0.2060222365,1
430,0,-1.0504723233,-0.7428093103,0.4402326415,-0.2074395321,1
431,0,-1.0734063288,-0.7028480409,0.4156507291,-0.2226211360,1
432,0,0.4622550622,-0.7428093103,0.4156507291,-0.2059119663,1
433,0,1.6794490400,-0.7500726752,0.4402326415,-0.1980049486,1
434,0,-0.2558088347,-0.7391762098,0.4402326415,-0.1855022605,1
435,0,-2.1917260565,-0.7464395747,0.4402326415,-0.1637563399,1
436,0,0.7348257912,-0.7500726752,0.4156507291,-0.1975930571,1
437,0,-1.9127051368,-0.7391762098,0.4402326415,-0.1655985000,1
438,0,-0.4365861781,-0.7391762098,0.4402326415,-0.2416135462,1
439,0,0.7859113012,-0.7428093103,0.4402326415,-0.2366513899,1
440,0,0.1268451482,-0.7500726752,0.4402326415,-0.2075400725,1
441,0,1.2400620526,-0.7500726752,0.4156507291,-0.1911941457,1
442,0,-0.5423693048,-0.7537057757,0.4156507291,-0.1906363085,1
443,0,0.6317660726,-0.7537057757,0.4402326415,-0.1826579395,1
444,0,0.2761455612,-0.7500726752,0.3787778606,-0.1553368903,1
445,0,0.1966792123,-0.7464395747,0.3787778606,-0.1612298564,1
446,0,-0.1719276829,-0.7500726752,0.4402326415,-0.1596179664,1
447,0,0.2663986007,-0.7573388762,0.4402326415,-0.1527650014,1
448,0,0.4405824216,-0.7464395747,0.4402326415,-0.1721044383,1
449,0,-0.8166600675,-0.7573388762,0.4156507291,-0.2072611540,1
450,0,0.4101375217,-0.7573388762,0.4156507291,-0.2028341321,1
451,0,0.4290007517,-0.7500726752,0.3787778606,-0.2418211136,1
452,0,0.7468374739,-0.7573388762,0.4156507291,-0.2685972985,1
453,0,1.4833345708,-0.7573388762,0.3787778606,-0.2527151549,1
454,0,-0.2245612387,-0.7464395747,0.3787778606,-0.2326816648,1
455,0,-1.4523335291,-0.7428093103,0.3787778606,-0.2221281636,1
456,0,0.0964002483,-0.7537057757,0.4156507291,-0.2573951494,1
457,0,0.4958533829,-0.7500726752,0.4156507291,-0.2481032684,1
458,0,0.1114220199,-0.7464395747,0.4156507291,-0.2590037962,1
459,0,-0.5232480673,-0.7537057757,0.4156507291,-0.2611767666,1
460,0,0.5037082875,-0.7500726752,0.4402326415,-0.2455638119,1
461,0,0.3626641185,-0.7609719767,0.4402326415,-0.3195712929,1
462,0,1.0204975627,-0.7537057757,0.4402326415,-0.2629832510,1
463,0,0.9697273897,-0.7573388762,0.4156507291,-0.2419800323,1
464,0,0.8076412711,-0.7573388762,0.4156507291,-0.2230362707,1
465,0,-1.4834664494,-0.7500726752,0.3787778606,-0.2077833155,1
466,0,0.0313249972,-0.7500726752,0.3787778606,-0.2030644021,1
467,0,0.5225428442,-0.7609719767,0.3787778606,-0.2750610747,1
468,0,0.2993089183,-0.7537057757,0.4156507291,-0.2570221769,1
469,0,0.8846135463,-0.7537057757,0.4156507291,-0.1990038663,1
470,0,0.5316304404,-0.7573388762,0.4156507291,-0.2045692652,1
471,0,-1.0433054391,-0.7537057757,0.3787778606,-0.2226957305,1
472,0,-0.0581176465,-0.7573388762,0.3787778606,-0.2135433088,1
473,0,0.2610951163,-0.7646050772,0.3787778606,-0.1835822627,1
474,0,0.2086335657,-0.7573388762,0.3787778606,-0.1720979518,1
475,0,0.8290559041,-0.7646050772,0.3787778606,-0.2085389903,1
476,0,-0.1631554237,-0.7500726752,0.3664869044,-0.3760004162,1
477,0,-1.8063773216,-0.7573388762,0.3664869044,-0.3824414897,1
478,0,0.4856477537,-0.7537057757,0.3664869044,-0.3291745250,1
479,0,1.5740959260,-0.7537057757,0.3664869044,-0.3565150336,1
480,0,-0.3468568535,-0.7573388762,0.3664869044,-0.3830609485,1
481,0,0.1849828666,-0.7646050772,0.3664869044,-0.4233419825,1
482,0,-0.0139696864,-0.7573388762,0.3787778606,-0.4972781123,1
483,0,0.3573319609,-0.7646050772,0.3664869044,-0.5558283141,1
484,0,0.7540616874,-0.7573388762,0.3664869044,-0.5917342181,1
485,0,0.2289014924,-0.7755015426,0.3664869044,-0.6359720042,1
486,10,-1.1201917117,-0.7391308315,0.9072889761,-1.3914149050,1
487,10,-0.1856450884,-0.6265075520,0.9072889761,-1.2782826048,1
488,10,-0.6432646147,-0.6846343240,0.9072889761,-1.2075475523,1
489,10,-8.2364290532,-0.7136991280,0.9072889761,-1.0938006582,1
490,10,-2.3812469859,-0.7173322285,0.9072889761,-1.0625942082,1
491,10,3.7054969259,-0.7282315300,0.9072889761,-0.9869180805,1
492,10,1.0771302367,-0.7245984295,0.8827070637,-0.9626245954,1
493,10,-0.6746555426,-0.7282315300,0.8827070637,-0.9569148723,1
494,10,1.1558655639,-0.7245984295,0.8827070637,-0.8243247570,1
495,10,-0.0145860322,-0.7282315300,0.8827070637,-0.7949799264,1
496,10,-0.2040926337,-0.7245984295,0.8581251514,-0.8746776711,1
497,10,1.0364510343,-0.7136991280,0.8581251514,-0.8811252312,1
498,10,-0.9393283657,-0.7209653290,0.8827070637,-0.8482679723,1
499,10,-0.5395025477,-0.7136991280,0.8827070637,-0.8535933714,1
500,10,0.2414865367,-0.7136991280,0.9072889761,-0.8619057942,1
501,10,-0.4071876367,-0.7136991280,0.9072889761,-0.8714409182,1
502,10,0.5492036322,-0.7100660275,0.9072889761,-0.8786036125,1
503,10,-0.5035534851,-0.7209653290,0.8827070637,-0.9488505574,1
504,10,0.0108707202,-0.7282315300,0.8827070637,-0.9716245848,1
505,10,-0.6652382642,-0.7209653290,0.9072889761,-1.0496050342,1
506,10,-0.7791486312,-0.7209653290,0.9072889761,-1.0736390602,1
507,10,0.7105444011,-0.7282315300,0.9072889761,-1.0708385229,1
508,10,1.0144487115,-0.7173322285,0.8581251514,-1.1436849243,1
509,10,1.3577135301,-0.7100660275,0.8581251514,-1.1682508415,1
510,10,-0.1602313372,-0.7209653290,0.8581251514,-1.1575822053,1
511,10,-1.6587826314,-0.7173322285,0.8581251514,-1.1938400008,1
512,10,-0.1598013245,-0.7100660275,0.8581251514,-1.1822956899,1
513,10,-0.3174439841,-0.7136991280,0.8581251514,-1.1567422063,1
514,10,0.4355082716,-0.7136991280,0.8581251514,-1.1673475993,1
515,10,0.6472895315,-0.7100660275,0.8581251514,-1.1468632989,1
516,10,-0.3616492907,-0.7209653290,0.8581251514,-1.1486146482,1
517,10,0.2877559044,-0.7136991280,0.8827070637,-1.0155996686,1
518,10,0.2536988977,-0.7173322285,0.8827070637,-0.9998342816,1
519,10,-0.0812380023,-0.6592054566,0.8827070637,-1.0173737205,1
520,10,-0.6316972728,-0.6991667260,0.8827070637,-1.0474434151,1
521,10,0.1513558727,-0.6882674245,0.8581251514,-1.0278915461,1
522,10,-0.4151858732,-0.6919005250,0.8581251514,-1.0676406888,1
523,10,0.4020532828,-0.6955336255,0.8581251514,-1.0354353211,1
524,10,0.2478077236,-0.7027998265,0.8581251514,-1.0063937334,1
525,10,0.5282190120,-0.6919005250,0.8581251514,-1.0504807089,1
526,10,0.5571158661,-0.6991667260,0.8581251514,-1.0954190347,1
527,10,-0.1164560433,-0.6955336255,0.8581251514,-1.1701643528,1
528,10,-0.5712374857,-0.7027998265,0.8335432390,-1.2029745847,1
529,10,-0.5959632166,-0.6991667260,0.8335432390,-1.2587583033,1
530,10,0.3395294347,-0.7064329270,0.8335432390,-1.2685496432,1
531,10,-0.8342762606,-0.7064329270,0.8335432390,-1.2849961104,1
532,10,-1.5303665080,-0.7027998265,0.8581251514,-1.3500263047,1
533,10,0.9260237703,-0.7027998265,0.8581251514,-1.3621089933,1
534,10,0.5829166287,-0.6991667260,0.8581251514,-1.3505371149,1
535,10,0.8146504783,-0.7064329270,0.8335432390,-1.4441094380,1
536,10,0.5781864889,-0.7100660275,0.8335432390,-1.4311672909,1
537,10,-0.6105836487,-0.7027998265,0.8335432390,-1.4758672387,1
538,10,-0.5274191905,-0.6991667260,0.8581251514,-1.3539571109,1
539,10,0.1699324217,-0.6628385571,0.8581251514,-1.5071158508,1
540,10,-1.3513665448,-0.6701047581,0.8335432390,-1.5505282325,1
541,10,-0.4770217009,-0.6810012235,0.8335432390,-1.4967991061,1
542,10,0.3980111633,-0.6810012235,0.8335432390,-1.5370412212,1
543,10,0.0643213001,-0.6701047581,0.8335432390,-1.5587352499,1
544,10,-0.6739675222,-0.6773681229,0.8335432390,-1.5655752419,1
545,10,0.6479775518,-0.6737378586,0.8335432390,-1.5693130754,1
546,10,0.6206717447,-0.6737378586,0.8335432390,-1.5437774296,1
547,10,-0.5665073459,-0.6846343240,0.8335432390,-1.5540682284,1
548,10,0.7378932095,-0.6701047581,0.8335432390,-1.5259850179,1
549,10,-0.8247299785,-0.6701047581,0.8335432390,-1.4805407467,1
550,10,-1.2888856980,-0.6773681229,0.8335432390,-1.4827672306,1
551,10,0.3747044744,-0.6882674245,0.8335432390,-1.4511051055,1
552,10,-0.3734316390,-0.6410399541,0.8335432390,-1.4212121674,1
553,10,0.5910868702,-0.6810012235,0.8335432390,-1.3746003300,1
554,10,-0.3833219313,-0.6737378586,0.8335432390,-1.3281538978,1
555,10,-0.5203239808,-0.6737378586,0.7966703705,-1.3914667968,1
556,10,1.5550033616,-0.6773681229,0.7966703705,-1.4012921907,1
557,10,-0.3294413387,-0.6773681229,0.7966703705,-1.3902781495,1
558,10,-0.7165387805,-0.6810012235,0.7966703705,-1.4167332537,1
559,10,0.8340870528,-0.6374068535,0.7966703705,-1.4123905561,1
560,10,-0.9782015148,-0.6519392556,0.7966703705,-1.4318159388,1
561,10,0.8048891898,-0.6519392556,0.7966703705,-1.4360548528,1
562,10,0.3933240247,-0.6483061551,0.7966703705,-1.4168759563,1
563,10,-0.7170117945,-0.6410399541,0.8335432390,-1.4234045973,1
564,10,0.5827446236,-0.6446730546,0.8335432390,-1.4240921641,1
565,10,0.5071053879,-0.6555723561,0.8335432390,-1.3794457298,1
566,10,-0.6614971536,-0.6483061551,0.8335432390,-1.3288122754,1
567,10,0.5732843440,-0.6446730546,0.7966703705,-1.3599084553,1
568,10,0.5434414619,-0.6410399541,0.7966703705,-1.3375819949,1
569,10,0.8201116397,-0.6337737530,0.7966703705,-1.3528317068,1
570,10,-0.8971871201,-0.6192413510,0.7966703705,-1.3247857937,1
571,10,-1.7005798668,-0.5683807801,0.7966703705,-1.3724954676,1
572,10,0.6228218082,-0.5865462826,0.7966703705,-1.3837397788,1
573,10,0.0967442585,-0.6010786846,0.7966703705,-1.3671619603,1
574,10,1.0349173165,-0.6083420495,0.7966703705,-1.4286067534,1
575,10,0.9417622355,-0.6083420495,0.7966703705,-1.4059819150,1
576,10,-1.3668900036,-0.6228744515,0.8335432390,-1.4607213104,1
577,10,0.8660799985,-0.6119751500,0.8335432390,-1.4396175513,1
578,10,0.7589638323,-0.6301406525,0.7720884581,-1.3505484662,1
579,10,0.4802295935,-0.6228744515,0.7720884581,-1.3399722624,1
580,10,-0.4988233453,-0.6192413510,0.7720884581,-1.3422976651,1
581,10,0.6168876328,-0.6192413510,0.7966703705,-1.2061091756,1
582,10,-1.2173315830,-0.6192413510,0.7966703705,-1.3127679699,1
583,10,0.8043301733,-0.6156082505,0.7720884581,-1.3249236313,1
584,10,0.6351201718,-0.6083420495,0.7720884581,-1.3076355434,1
585,10,-1.6546545093,-0.6083420495,0.7720884581,-1.3612349402,1
586,10,-1.3180835610,-0.6010786846,0.7966703705,-1.3966803042,1
587,10,0.7994280284,-0.5974455841,0.7966703705,-1.3966219259,1
588,10,-0.0165210894,-0.5974455841,0.7966703705,-1.3930608490,1
589,10,-1.1484435468,-0.6010786846,0.7720884581,-1.3718500630,1
590,10,0.6121144918,-0.6047117852,0.7720884581,-1.3713457392,1
591,10,-0.5812137806,-0.6083420495,0.7720884581,-1.4062916443,1
592,10,-0.3564461369,-0.6119751500,0.7720884581,-1.3687949314,1
593,10,0.2976031954,-0.6119751500,0.7720884581,-1.3670727713,1
594,10,-0.6081755775,-0.6192413510,0.7720884581,-1.3966316556,1
595,10,0.3035803721,-0.6265075520,0.7720884581,-1.3806068095,1
596,10,0.2715014239,-0.6119751500,0.7720884581,-1.3485603605,1
597,10,-0.4050805745,-0.6156082505,0.7720884581,-1.3602911576,1
598,10,0.3455926139,-0.6192413510,0.7597975020,-1.3362765910,1
599,10,-0.4548760463,-0.6192413510,0.7597975020,-1.3806376203,1
600,10,1.0448362821,-0.6192413510,0.7597975020,-1.3774138402,1
601,10,-0.2602522936,-0.6301406525,0.7597975020,-1.3442046899,1
602,10,-1.2875526586,-0.6228744515,0.7597975020,-1.3692035796,1
603,10,0.6998370847,-0.6192413510,0.7597975020,-1.3625257495,1
604,10,1.1435672004,-0.6228744515,0.7597975020,-1.3761765444,1
605,10,0.5246929077,-0.6228744515,0.7597975020,-1.3551408933,1
606,10,-0.7634961685,-0.6228744515,0.7352155896,-1.3806441067,1
607,10,0.6532237069,-0.6337737530,0.7352155896,-1.3374798329,1
608,10,-0.2713036203,-0.6228744515,0.7352155896,-1.3722522247,1
609,10,0.7532446633,-0.6228744515,0.7597975020,-1.4195273045,1
610,10,-0.7364913703,-0.6337737530,0.7597975020,-1.4332121534,1
611,10,0.5194754259,-0.6301406525,0.7597975020,-1.4335883692,1
612,10,-1.3663739883,-0.6301406525,0.7597975020,-1.3778711370,1
613,10,0.5260689484,-0.6192413510,0.7597975020,-1.3527311664,1
614,10,-0.5975972649,-0.6192413510,0.7597975020,-1.4144013646,1
615,10,0.4492686784,-0.6301406525,0.7597975020,-1.3795478918,1
616,10,0.0773076839,-0.6301406525,0.7597975020,-1.3370436172,1
617,10,-1.2985609839,-0.6228744515,0.7597975020,-1.3727500619,1
618,10,0.7016001368,-0.6265075520,0.7352155896,-1.3311182187,1
619,10,-0.9231168866,-0.6192413510,0.7597975020,-1.3332620000,1
620,10,0.2610951163,-0.6265075520,0.7352155896,-1.2474588570,1
621,10,-0.9391133594,-0.6265075520,0.7352155896,-1.1711000273,1
622,10,0.6124728299,-0.6228744515,0.7106336773,-1.2414394046,1
623,10,0.9230566826,-0.6301406525,0.7106336773,-1.3148436431,1
624,10,-0.5003713911,-0.6228744515,0.7106336773,-1.3043096014,1
625,10,-0.4507479243,-0.6192413510,0.7106336773,-1.3359263212,1
626,10,0.0540439963,-0.6301406525,0.7352155896,-1.3364890232,1
627,10,-1.0360382243,-0.6156082505,0.7352155896,-1.5593222763,1
628,10,0.0919711174,-0.6192413510,0.7106336773,-1.5626628129,1
629,10,1.1018989688,-0.6119751500,0.7352155896,-1.6374632660,1
630,10,-1.8088140660,-0.6228744515,0.7352155896,-1.6996345447,1
631,10,-1.6205975027,-0.6083420495,0.7106336773,-1.7746636462,1
632,10,0.0334463875,-0.6192413510,0.7106336773,-1.7265372160,1
633,10,-0.1073397739,-0.6156082505,0.7352155896,-1.7419539547,1
634,10,0.9547056180,-0.6228744515,0.7352155896,-1.6938015785,1
635,10,0.1542369578,-0.6192413510,0.7352155896,-1.6764843015,1
636,10,1.1614127279,-0.6083420495,0.6860517649,-1.6562189198,1
637,10,0.8735622196,-0.6119751500,0.6860517649,-1.6138962665,1
638,10,-0.8638611351,-0.6083420495,0.7106336773,-1.5978746636,1
639,10,0.7003100986,-0.6119751500,0.7106336773,-1.5435277001,1
640,10,0.3458506215,-0.6119751500,0.6860517649,-1.5458012110,1
641,10,0.5136415811,-0.6192413510,0.7106336773,-1.5465422912,1
642,10,0.6588998746,-0.6083420495,0.7106336773,-1.5256542075,1
643,10,-0.5920931022,-0.6047117852,0.7106336773,-1.5287871768,1
644,10,-0.3545970823,-0.6192413510,0.6614698526,-1.4655375210,1
645,10,-1.3048391695,-0.6156082505,0.6614698526,-1.5125936822,1
646,10,0.2548169308,-0.6047117852,0.6614698526,-1.4444629511,1
647,10,-0.6070145432,-0.6156082505,0.7106336773,-1.4433148443,1
648,10,-0.9705472885,-0.6083420495,0.7106336773,-1.5148217877,1
649,10,0.8836245170,-0.6010786846,0.7106336773,-1.4872380362,1
650,10,0.1472564239,-0.5683807801,0.7106336773,-1.4647137382,1
651,10,1.5977466250,-0.6083420495,0.6860517649,-1.4719121082,1
652,10,0.0417886341,-0.6083420495,0.6860517649,-1.3984478697,1
653,10,0.9747872116,-0.5974455841,0.6860517649,-1.3934662539,1
654,10,0.3366053483,-0.6010786846,0.6860517649,-1.3646403417,1
655,10,0.6148235718,-0.5974455841,0.6860517649,-1.4542283451,1
656,10,0.2898629667,-0.5974455841,0.6860517649,-1.5051666639,1
657,10,0.5266709662,-0.6083420495,0.6860517649,-1.4743121054,1
658,10,-0.9873607855,-0.6083420495,0.6860517649,-1.5371125725,1
659,10,0.2678033146,-0.5974455841,0.6860517649,-1.5295460949,1
660,10,1.3638627119,-0.5901793831,0.6614698526,-1.5707157765,1
661,10,0.7560970752,-0.6010786846,0.6614698526,-1.5292574465,1
662,10,-0.8593030004,-0.6010786846,0.6614698526,-1.5775395523,1
663,10,-0.1386016979,-0.6010786846,0.6860517649,-1.5833854914,1
664,10,-0.0170371047,-0.5938124836,0.6860517649,-1.5073526073,1
665,10,-1.5151583861,-0.5938124836,0.6860517649,-1.5472606687,1
666,10,1.0728301096,-0.5901793831,0.6860517649,-1.5283152855,1
667,10,-1.3845205247,-0.5829131821,0.6860517649,-1.4912142478,1
668,10,1.0612197664,-0.5829131821,0.6860517649,-1.4976504565,1
669,10,0.7415483176,-0.5829131821,0.6860517649,-1.4499018636,1
670,10,-0.3644443733,-0.5792800816,0.6860517649,-1.4058489421,1
671,10,0.2230389915,-0.5756469811,0.6860517649,-1.3940305776,1
672,10,-0.5297412592,-0.5720138806,0.6860517649,-1.3232728225,1
673,10,1.0136603606,-0.5829131821,0.6614698526,-1.3650619628,1
674,10,-0.4147988617,-0.5829131821,0.6614698526,-1.3373063196,1
675,10,-0.6107126525,-0.5756469811,0.6614698526,-1.3967743582,1
676,10,0.8254007961,-0.5756469811,0.6614698526,-1.3929894977,1
677,10,0.2922280366,-0.5720138806,0.6614698526,-1.5296887974,1
678,10,0.2050644602,-0.5829131821,0.6614698526,-1.5472217499,1
679,10,1.7691066901,-0.5829131821,0.6614698526,-1.6032487114,1
680,10,0.8914077471,-0.5829131821,0.6614698526,-1.5648390266,1
681,10,-0.7125826636,-0.5829131821,0.6614698526,-1.5850476516,1
682,10,0.8690040849,-0.5901793831,0.6614698526,-1.5537179585,1
683,10,-0.6769346099,-0.5938124836,0.6614698526,-1.4947850544,1
684,10,-0.2780548198,-0.5865462826,0.6614698526,-1.4490180809,1
685,10,-1.6916786037,-0.5865462826,0.6614698526,-1.3993689497,1
686,10,-0.0147150361,-0.5829131821,0.6368879402,-1.3152198589,1
687,10,-1.5698560029,-0.5901793831,0.6368879402,-1.3370079415,1
688,10,0.8189936067,-0.5829131821,0.6368879402,-1.3335506483,1
689,10,-0.1540391542,-0.5974455841,0.6368879402,-1.3490079275,1
690,10,-0.5656903218,-0.5938124836,0.6614698526,-1.3342933501,1
691,10,-1.4440342838,-0.5901793831,0.6614698526,-1.4050008350,1
692,10,0.1535489375,-0.6010786846,0.6123060279,-1.4120143403,1
693,10,-1.3361010935,-0.5974455841,0.6123060279,-1.4914607340,1
694,10,0.8535666286,-0.6010786846,0.6123060279,-1.5393682455,1
695,10,-1.0810175538,-0.5938124836,0.6123060279,-1.5534714723,1
696,10,1.2963650444,-0.5974455841,0.6368879402,-1.5903925102,1
697,10,0.5319601226,-0.6010786846,0.6368879402,-1.5500303952,1
698,10,1.6337386889,-0.5865462826,0.6368879402,-1.5600568700,1
699,10,-1.2673420612,-0.5974455841,0.6123060279,-1.5383352738,1
700,10,0.8950198539,-0.5974455841,0.6123060279,-1.5326628480,1
701,10,-0.7206239013,-0.5901793831,0.6123060279,-1.4656575209,1
702,10,-1.4606757757,-0.5974455841,0.6123060279,-1.4517002399,1
703,10,0.8564907150,-0.5865462826,0.6123060279,-1.4990855899,1
704,10,0.4078584544,-0.5865462826,0.6123060279,-1.4869137123,1
705,10,-1.9784110789,-0.5938124836,0.6123060279,-1.4932023536,1
706,10,0.2884439247,-0.5465821771,0.6123060279,-1.4720904863,1
707,10,0.4690062618,-0.5901793831,0.6123060279,-1.4710218389,1
708,10,1.3465331997,-0.5792800816,0.5754331594,-1.5145947610,1
709,10,-1.4766292473,-0.5756469811,0.5754331594,-1.4915142474,1
710,10,1.9320815073,-0.5865462826,0.5754331594,-1.4944201900,1
711,10,-0.3806558525,-0.5792800816,0.5754331594,-1.4625764434,1
712,10,-2.7624102523,-0.5792800816,0.5754331594,-1.4904326271,1
713,10,1.8372207034,-0.5756469811,0.5754331594,-1.4810807461,1
714,10,-2.4971354114,-0.5829131821,0.5754331594,-1.4774677774,1
715,10,0.4443235322,-0.5792800816,0.5754331594,-1.4384305257,1
716,10,0.6306050383,-0.5829131821,0.6123060279,-1.4165889296,1
717,10,-1.2769456726,-0.5829131821,0.6123060279,-1.4458559224,1
718,10,0.5756494139,-0.5756469811,0.6123060279,-1.4287137803,1
719,10,-0.0260673716,-0.5683807801,0.5754331594,-1.3881327466,1
720,10,-1.6422271420,-0.5683807801,0.5754331594,-1.4249451360,1
721,10,1.1402991038,-0.5756469811,0.5754331594,-1.4136894735,1
722,10,0.0755876331,-0.5756469811,0.5754331594,-1.3821051861,1
723,10,0.8294859168,-0.5647476796,0.5754331594,-1.3965213855,1
724,10,-0.6214629703,-0.5720138806,0.5754331594,-1.3959878726,1
725,10,0.4908509074,-0.5683807801,0.6123060279,-1.3502079261,1
726,10,0.0050655486,-0.5647476796,0.6123060279,-1.3289484915,1
727,10,0.5605559678,-0.5720138806,0.6123060279,-1.3136598607,1
728,10,0.7468374739,-0.5683807801,0.5754331594,-1.3566684591,1
729,10,0.5146736116,-0.5683807801,0.5754331594,-1.3454565803,1
730,10,-1.5741131287,-0.5647476796,0.5754331594,-1.3809149172,1
731,10,-0.0573292956,-0.5647476796,0.6123060279,-1.2892155650,1
732,10,1.0133593517,-0.5647476796,0.5631422032,-1.4173089288,1
733,10,-0.7315748974,-0.5611145791,0.5754331594,-1.4900142492,1
734,10,0.1922500814,-0.5611145791,0.5754331594,-1.5069861212,1
735,10,1.1087791721,-0.5611145791,0.5754331594,-1.4172359559,1
736,10,0.3254680191,-0.5502152776,0.5631422032,-1.4306986428,1
737,10,-1.1936808839,-0.5611145791,0.5754331594,-1.4732742687,1
738,10,1.4273325879,-0.5611145791,0.5754331594,-1.4754196716,1
739,10,0.6051912871,-0.5465821771,0.5754331594,-1.4613034719,1
740,10,-0.8079451547,-0.5429490766,0.5631422032,-1.3963770613,1
741,10,0.8948908500,-0.5502152776,0.5631422032,-1.3694954711,1
742,10,0.7861406356,-0.5538483781,0.5631422032,-1.2907204281,1
743,10,-0.1064367472,-0.5502152776,0.5631422032,-1.2468264253,1
744,10,-1.4888846095,-0.5502152776,0.5631422032,-1.2867636759,1
745,10,1.4890824131,-0.5465821771,0.5631422032,-1.2653712685,1
746,10,0.9395691706,-0.5502152776,0.5385602908,-1.1301119672,1
747,10,0.3521718084,-0.5211533097,0.5385602908,-1.2065470129,1
748,10,-0.7883939044,-0.5138871087,0.5385602908,-1.2109302511,1
749,10,1.0563176215,-0.5066209077,0.5385602908,-1.2845161110,1
750,10,0.5002681858,-0.5066209077,0.5754331594,-1.2873085402,1
751,10,1.3436951158,-0.5066209077,0.5754331594,-1.2459118318,1
752,10,0.5698872436,-0.4630265378,0.5631422032,-1.3198901237,1
753,10,-0.3606602615,-0.4630265378,0.5631422032,-1.2977712306,1
754,10,0.7789594233,-0.4484941358,0.5385602908,-1.3152685075,1
755,10,0.0058395715,-0.4448610353,0.5385602908,-1.2643334319,1
756,10,0.9695553846,-0.4375948343,0.5385602908,-1.3463030658,1
757,10,1.0728731108,-0.4048997659,0.5631422032,-1.2092632260,1
758,10,0.3530748351,-0.4484941358,0.5631422032,-1.2311907679,1
759,10,-1.1225137803,-0.4484941358,0.5385602908,-1.2801247648,1
760,10,-1.4086442378,-0.4630265378,0.5385602908,-1.3507284660,1
761,10,0.9854085256,-0.4593934373,0.5385602908,-1.4029981347,1
762,10,-0.6365994177,-0.4557603368,0.5385602908,-1.4234645972,1
763,10,0.3597830333,-0.4666596383,0.5385602908,-1.4302348596,1
764,10,-0.8328572187,-0.4630265378,0.5385602908,-1.4247537849,1
765,10,1.1238296170,-0.4484941358,0.5385602908,-1.4456370037,1
766,10,0.4272090263,-0.4557603368,0.5385602908,-1.4093565056,1
767,10,0.8768303162,-0.4593934373,0.5385602908,-1.4766294000,1
768,10,-0.3180460019,-0.4593934373,0.5385602908,-1.4783580466,1
769,10,-0.3655480784,-0.4666596383,0.5385602908,-1.4959169450,1
770,10,1.2659918190,-0.4702927388,0.5385602908,-1.4815493942,1
771,10,0.1393585180,-0.4666596383,0.5385602908,-1.5013153170,1
772,10,-2.0135431174,-0.4630265378,0.5385602908,-1.5357990605,1
773,10,1.1639498029,-0.4630265378,0.5385602908,-1.4687613010,1
774,10,0.1875629429,-0.4666596383,0.5385602908,-1.4959558638,1
775,10,-1.4952917989,-0.4448610353,0.5385602908,-1.4962477554,1
776,10,-2.2325915920,-0.4230624322,0.5385602908,-1.4759839953,1
777,10,1.5451560706,-0.4266955327,0.5385602908,-1.4699256240,1
778,10,0.4485806580,-0.4266955327,0.5385602908,-1.4364537712,1
779,10,-2.0205953258,-0.4339617337,0.5385602908,-1.4935299207,1
780,10,1.0208415729,-0.4157962312,0.5385602908,-1.4375564727,1
781,10,1.0972548315,-0.4230624322,0.5139783785,-1.4938266771,1
782,10,1.2161533459,-0.4085300302,0.5139783785,-1.5015147763,1
783,10,0.6451394679,-0.4085300302,0.5139783785,-1.4623364437,1
784,10,-0.9250949450,-0.4230624322,0.5139783785,-1.4836023648,1
785,10,1.6113780280,-0.4230624322,0.5139783785,-1.4815137186,1
786,10,0.3244359886,-0.4121631307,0.5139783785,-1.4427813314,1
787,10,-1.7637917352,-0.4121631307,0.5139783785,-1.4665234658,1
788,10,1.2692169144,-0.4121631307,0.5139783785,-1.4662088716,1
789,10,-0.4181529609,-0.4085300302,0.5139783785,-1.4976715375,1
790,10,0.9714331125,-0.4121631307,0.5139783785,-1.5497287740,1
791,10,0.4725323660,-0.4230624322,0.5385602908,-1.5016996409,1
792,10,-1.4127723598,-0.4230624322,0.5385602908,-1.4482299737,1
793,10,0.7026751685,-0.4157962312,0.5385602908,-1.4530964545,1
794,10,-1.0229228366,-0.4121631307,0.5139783785,-1.5064736894,1
795,10,1.0664229202,-0.4230624322,0.5139783785,-1.5264796120,1
796,10,1.4569174624,-0.4230624322,0.5139783785,-1.5071288238,1
797,10,0.6998800859,-0.4157962312,0.4893964661,-1.5431612141,1
798,10,1.7172901585,-0.4085300302,0.5139783785,-1.5933130473,1
799,10,0.8052331999,-0.4121631307,0.5139783785,-1.5592817358,1
800,10,-0.8233969391,-0.4085300302,0.5139783785,-1.6222832838,1
801,10,0.5761797572,-0.4194293317,0.5385602908,-1.6100141089,1
802,10,-1.0216327985,-0.4121631307,0.4893964661,-1.4411207928,1
803,10,0.1449630113,-0.3867342633,0.4893964661,-1.3940467938,1
804,10,-0.5411795973,-0.3831011628,0.4893964661,-1.3547679208,1
805,10,-0.6486827749,-0.3685687608,0.5139783785,-1.3187841790,1
806,10,-0.4967879576,-0.3758349618,0.5139783785,-1.3558479195,1
807,10,-0.2246902425,-0.3685687608,0.5139783785,-1.2882539445,1
808,10,0.2072575250,-0.3685687608,0.5139783785,-1.2491615577,1
809,10,-2.1935034366,-0.3540363588,0.4893964661,-1.3132933747,1
810,10,1.1329458865,-0.3540363588,0.4893964661,-1.2715999099,1
811,10,-2.3211312090,-0.3649356603,0.4893964661,-1.3175825588,1
812,10,0.0439816989,-0.3613025598,0.4893964661,-1.3126447268,1
813,10,-1.2780063764,-0.3613025598,0.4893964661,-1.3921365257,1
814,10,2.5989882197,-0.3540363588,0.4893964661,-1.4030792157,1
815,10,-1.6199094823,-0.3504032583,0.4893964661,-1.3760046527,1
816,10,0.1064195444,-0.3431370573,0.4893964661,-1.4997309946,1
817,10,-1.2660950243,-0.3395067929,0.4893964661,-1.5639455141,1
818,10,1.5126901109,-0.3504032583,0.4893964661,-1.5839173827,1
819,10,-0.4753016501,-0.3467701578,0.4893964661,-1.6463529854,1
820,10,1.1737970939,-0.3395067929,0.4893964661,-1.6459605534,1
821,10,-2.5006185143,-0.3504032583,0.4893964661,-1.7405561185,1
822,10,1.4135721812,-0.3540363588,0.5139783785,-1.7173280375,1
823,10,0.8751102654,-0.3467701578,0.5139783785,-1.6748318710,1
824,10,-1.2653640027,-0.3322405919,0.5139783785,-1.7496128647,1
825,10,0.8580817620,-0.3431370573,0.5139783785,-1.7351188275,1
826,10,-0.9951010143,-0.3540363588,0.4893964661,-1.6108524863,1
827,10,0.4399374025,-0.3431370573,0.4893964661,-1.6318394888,1
828,10,-0.5907600628,-0.3431370573,0.4893964661,-1.6136497803,1
829,10,0.8530506133,-0.3467701578,0.4893964661,-1.5190963773,1
830,10,-0.4240441350,-0.3431370573,0.4893964661,-1.5216325906,1
831,10,1.1814083189,-0.3358736924,0.4893964661,-1.5943622353,1
832,10,0.6637160170,-0.3286074914,0.4893964661,-1.5776336062,1
833,10,1.7357377038,-0.3286074914,0.4893964661,-1.6396686688,1
834,10,-2.1493411313,-0.3395067929,0.4893964661,-1.6487091988,1
835,10,-0.2427507763,-0.3395067929,0.4648145538,-1.5559801180,1
836,10,1.0326669224,-0.3322405919,0.4648145538,-1.5461644538,1
837,10,-0.3680134788,-0.3431370573,0.4648145538,-1.4696077865,1
838,10,-1.9951815746,-0.3467701578,0.4648145538,-1.4876596573,1
839,10,0.9080922403,-0.3467701578,0.4648145538,-1.4737072412,1
840,10,0.6099214269,-0.3431370573,0.4648145538,-1.4235602728,1
841,10,0.4773485083,-0.3395067929,0.4648145538,-1.3370403739,1
842,10,-1.2666110396,-0.3504032583,0.4648145538,-1.3168317489,1
843,10,-2.2335232919,-0.3395067929,0.4648145538,-1.2991463642,1
844,10,1.3860513678,-0.3431370573,0.4648145538,-1.3020344689,1
845,10,-1.9553193964,-0.3576694593,0.4648145538,-1.2897442130,1
846,10,1.1805052922,-0.3504032583,0.4648145538,-1.3164425602,1
847,10,0.2625571595,-0.3467701578,0.4648145538,-1.2862739468,1
848,10,0.5305840819,-0.3504032583,0.4402326415,-1.3121112139,1
849,10,-2.2065758230,-0.3576694593,0.4893964661,-1.3598144014,1
850,10,0.2432925901,-0.3504032583,0.4893964661,-1.3080393267,1
851,10,-2.0761529680,-0.3467701578,0.4893964661,-1.3197182320,1
852,10,-0.8719453740,-0.3540363588,0.4648145538,-1.2898447534,1
853,10,-2.0073509343,-0.3431370573,0.4648145538,-1.3711608746,1
854,10,1.5096800220,-0.3395067929,0.4402326415,-1.3818197810,1
855,10,1.8014866472,-0.3177081899,0.4402326415,-1.4315062095,1
856,10,0.0418316353,-0.3286074914,0.4402326415,-1.4364651226,1
857,10,-0.5857719153,-0.3213412904,0.4402326415,-1.4764980488,1
858,10,1.2180884031,-0.3213412904,0.4402326415,-1.4831450680,1
859,10,0.2513194998,-0.3140750894,0.4402326415,-1.4505099710,1
860,10,1.6112060229,-0.3140750894,0.4648145538,-1.4834888514,1
861,10,-1.9227674342,-0.3213412904,0.4648145538,-1.4790845322,1
862,10,0.9673479917,-0.2886433859,0.4402326415,-1.4025635406,1
863,10,0.1574190519,-0.2886433859,0.4402326415,-1.3587506188,1
864,10,-0.5561010383,-0.2741138200,0.4402326415,-1.3149101295,1
865,10,-1.8645867145,-0.2741138200,0.4402326415,-1.2786620638,1
866,10,-1.8460961680,-0.3068088884,0.4402326415,-1.3431765830,1
867,10,1.5247304668,-0.3031757879,0.4402326415,-1.3623052093,1
868,10,0.4365833034,-0.3031757879,0.4402326415,-1.3582025114,1
869,10,-2.0350294248,-0.2995426874,0.4402326415,-1.4227040576,1
870,10,0.7324750494,-0.3031757879,0.4402326415,-1.4677315725,1
871,10,-2.0739599032,-0.3031757879,0.4402326415,-1.5292542033,1
872,10,0.2967861713,-0.2922764864,0.4402326415,-1.5203109705,1
873,10,-1.5668889152,-0.2922764864,0.4402326415,-1.5637136225,1
874,10,-0.0253220220,-0.2995426874,0.4156507291,-1.5124834121,1
875,10,-2.2686696584,-0.2850102854,0.4156507291,-1.5488466128,1
876,10,1.4776440750,-0.2777440844,0.4402326415,-1.5400347312,1
877,10,1.3403840179,-0.2886433859,0.4402326415,-1.4623932004,1
878,10,0.8343880617,-0.2741138200,0.4402326415,-1.3891105833,1
879,10,-0.2813659177,-0.2813771849,0.4402326415,-1.3740489793,1
880,10,1.7406398487,-0.2813771849,0.4156507291,-1.4570986120,1
881,10,-0.2855800423,-0.2668476190,0.4156507291,-1.4940553255,1
882,10,-0.6985212480,-0.2741138200,0.4156507291,-1.4903645190,1
883,10,0.6992780681,-0.2595814180,0.4156507291,-1.5752968522,1
884,10,0.9770232777,-0.2595814180,0.4156507291,-1.6376432658,1
885,10,0.8501265269,-0.2704807195,0.4156507291,-1.6328302985,1
886,10,0.8064802368,-0.2559483175,0.4402326415,-1.5213325909,1
887,10,0.1049144999,-0.2523152170,0.4402326415,-1.6137795099,1
888,10,0.8978149365,-0.2632145185,0.4402326415,-1.6221049056,1
889,10,0.5371202751,-0.2450490160,0.4402326415,-1.6946869829,1
890,10,-1.3090962953,-0.2486821165,0.4402326415,-1.6510540609,1
891,10,1.4640556734,-0.2595814180,0.4402326415,-1.6449616356,1
892,10,-0.1386877004,-0.2595814180,0.4402326415,-1.6159703182,1
893,10,0.9707020909,-0.2450490160,0.4156507291,-1.7230604633,1
894,10,-0.8693509698,-0.2341497145,0.4402326415,-1.7125069621,1
895,10,-2.3940613647,-0.2341497145,0.4402326415,-1.7879009280,1
896,10,1.1940936939,-0.2377828150,0.4402326415,-1.7765204008,1
897,10,-0.0167360958,-0.2486821165,0.4402326415,-1.7262874865,1
898,10,-2.6502342643,-0.2414159155,0.4648145538,-1.7694306793,1
899,10,1.5201723321,-0.2414159155,0.4402326415,-1.7471934080,1
900,10,0.6826365762,-0.2523152170,0.4402326415,-1.6990702210,1
901,10,-1.7572125407,-0.2414159155,0.4156507291,-1.6170713980,1
902,10,0.4112842280,-0.2486821165,0.4156507291,-1.5794433338,1
903,10,0.3927220070,-0.2341497145,0.4156507291,-1.5508185024,1
904,10,1.5412429549,-0.2341497145,0.4156507291,-1.5605384911,1
905,10,1.5089920016,-0.2341497145,0.4402326415,-1.5499282332,1
906,10,-1.7369159408,-0.2414159155,0.4402326415,-1.5568833602,1
907,10,-0.1658215025,-0.2377828150,0.4156507291,-1.5294747436,1
908,10,0.1266731431,-0.2341497145,0.4156507291,-1.3964694937,1
909,10,-2.0574474151,-0.2414159155,0.4156507291,-1.4106262339,1
910,10,1.5693371129,-0.2414159155,0.4156507291,-1.3748597892,1
911,10,0.4601910012,-0.2377828150,0.3787778606,-1.3249560637,1
912,10,0.8308189562,-0.2014546461,0.4402326415,-1.3732576289,1
913,10,-0.2055116756,-0.2050877466,0.4402326415,-1.3687900665,1
914,10,-1.7978917431,-0.2050877466,0.4402326415,-1.4326040460,1
915,10,1.4977256686,-0.2050877466,0.4402326415,-1.4359186367,1
916,10,0.1410355676,-0.1941884450,0.4402326415,-1.3903170684,1
917,10,0.0882730081,-0.2014546461,0.4402326415,-1.3556403522,1
918,10,0.5188447349,-0.1651236410,0.4402326415,-1.3318171368,1
919,10,1.6557123384,-0.1287954721,0.4402326415,-1.3294576801,1
920,10,0.7449167447,-0.1360616731,0.4156507291,-1.2986014999,1
921,10,-0.8166027382,-0.1360616731,0.4156507291,-1.3209830954,1
922,10,0.0656973408,-0.1287954721,0.4156507291,-1.3521960319,1
923,10,-0.7806536756,-0.1178961706,0.4402326415,-1.3566035943,1
924,10,-0.0988685235,-0.1324285726,0.4402326415,-1.3697873627,1
925,10,-0.3911194894,-0.1360616731,0.4402326415,-1.3568435940,1
926,10,1.2178303955,-0.1324285726,0.4156507291,-1.3890570699,1
927,10,0.4313801496,-0.1396947736,0.4156507291,-1.3503814394,1
928,10,-2.0303566143,-0.1578574400,0.4156507291,-1.4159743357,1
929,10,-0.5836218518,-0.1796560430,0.4156507291,-1.3922857148,1
930,10,-2.4706896297,-0.1978215456,0.4156507291,-1.4412375494,1
931,10,1.3691948695,-0.2014546461,0.4156507291,-1.4389234981,1
932,10,0.3328642377,-0.1941884450,0.4156507291,-1.4208408165,1
933,10,-2.1107689912,-0.1978215456,0.4402326415,-1.4653250888,1
934,10,1.0231206403,-0.2014546461,0.4402326415,-1.4718050813,1
935,10,1.5415869651,-0.2196173124,0.4402326415,-1.4958553234,1
936,10,-0.9745034055,-0.2087180109,0.4156507291,-1.4824120959,1
937,10,-2.0576194202,-0.2123511114,0.4156507291,-1.4670488706,1
938,10,1.4271605829,-0.2123511114,0.4156507291,-1.5337882521,1
939,10,0.7386242311,-0.2232504129,0.3787778606,-1.5720260452,1
940,10,-1.9016108089,-0.2196173124,0.3787778606,-1.6255492259,1
941,10,1.0438042516,-0.2268835134,0.3664869044,-1.5805395488,1
942,10,1.5498432091,-0.2232504129,0.4156507291,-1.6184692342,1
943,10,-1.3496894952,-0.2232504129,0.4156507291,-1.6211870688,1
944,10,0.8240247554,-0.2305166139,0.4156507291,-1.6074389768,1
945,10,0.0423906519,-0.2087180109,0.4402326415,-1.5608433556,1
946,10,-0.5659053281,-0.2123511114,0.4156507291,-1.5077401744,1
947,10,-0.6929740840,-0.2123511114,0.4156507291,-1.5620547055,1
948,10,0.6694781873,-0.1978215456,0.4156507291,-1.5490541802,1
949,10,-2.2935243930,-0.2123511114,0.4156507291,-1.5657795660,1
950,10,1.4285366235,-0.2196173124,0.4156507291,-1.5439687807,1
951,10,0.6351201718,-0.2196173124,0.4156507291,-1.4918110038,1
952,10,-0.6789556697,-0.1832891435,0.3787778606,-1.3057495997,1
953,10,1.5329867109,-0.1287954721,0.3787778606,-1.3489122519,1
954,10,0.7348401193,-0.1287954721,0.3787778606,-1.3312057862,1
955,10,-0.7675239600,-0.1324285726,0.3787778606,-1.3440814468,1
956,10,1.1006949332,-0.1542243395,0.3787778606,-1.3056506809,1
957,10,-0.1080277942,-0.1578574400,0.3787778606,-1.3030317650,1
958,10,0.7315290214,-0.1760229425,0.3787778606,-1.3547014344,1
959,10,-0.7861148371,-0.1178961706,0.4156507291,-1.2824647620,1
960,10,1.3441681298,-0.1142630701,0.4156507291,-1.2460350749,1
961,10,1.0779902621,-0.1033637686,0.3787778606,-1.2086956591,1
962,10,-0.3299573540,-0.1178961706,0.3787778606,-1.1835378506,1
963,10,0.5233168671,-0.1251623716,0.4402326415,-1.2100691710,1
964,10,0.8945468399,-0.1178961706,0.3787778606,-1.1347173672,1
965,10,-0.5233340698,-0.1687567415,0.3787778606,-1.1290838602,1
966,10,0.5943119655,-0.1687567415,0.3787778606,-1.1110644218,1
967,10,-1.1009271423,-0.1614905405,0.4402326415,-1.1068092917,1
968,10,-1.7943656389,-0.1614905405,0.4402326415,-1.1731108358,1
969,10,-0.8982191506,-0.1687567415,0.4402326415,-1.6739188991,1
970,10,-3.1760824797,-0.1578574400,0.3787778606,-1.8684938068,1
971,10,2.5453226335,-0.1433250380,0.3787778606,-1.8522678798,1
972,2,0.4899908820,-0.5610011333,-0.8503177568,-0.2138416868,1
973,2,-1.3131384148,-0.4047664671,-0.8503177568,-0.2610600100,1
974,2,-0.0165497627,-0.5355665937,-0.8503177568,-0.2385243607,1
975,2,-4.4716247733,-0.5355665937,-0.8626087130,-0.2195903287,1
976,2,1.2672388559,-0.5319334932,-0.8626087130,-0.2261805913,1
977,2,1.7415858766,-0.4955996520,-0.8503177568,-0.1835563168,1
978,2,3.8709658168,-0.4919665515,-0.8503177568,-0.1597979662,1
979,2,0.9630908659,-0.5355665937,-0.8503177568,-0.1380763700,1
980,2,-5.8483821398,-0.4992327525,-0.8134448883,-0.1002666844,1
981,2,4.1350366222,-0.4883334510,-0.8134448883,-0.1030720865,1
982,2,0.2571389994,-0.4847003505,-0.8134448883,-0.1015120884,1
983,2,-0.7349576526,-0.4992327525,-0.8134448883,-0.1074147842,1
984,2,3.5908555373,-0.5028686891,-0.8134448883,-0.1418206899,1
985,2,2.0609133153,-0.4992327525,-0.8134448883,-0.1329455651,1
986,2,-2.4003395503,-0.5319334932,-0.8134448883,-0.2010325126,1
987,2,-1.5843044299,-0.4774341495,-0.7888629759,-0.3293091194,1
988,2,-2.0006427360,-0.4774341495,-0.7888629759,-0.2699902698,1
989,2,4.5158988797,-0.4665348479,-0.7888629759,-0.2043730492,1
990,2,1.5962415805,-0.4774341495,-0.8134448883,-0.0323402773,1
991,2,-3.5409482643,-0.4556327103,-0.8134448883,-0.0053532819,1
992,2,-1.3745012286,-0.4447334088,-0.8503177568,0.1081406395,1
993,2,-0.8722893842,-0.4483665093,-0.8503177568,0.0794055380,1
994,2,3.0320540202,-0.4992327525,-0.8134448883,0.2389956217,1
995,2,-2.1447399953,-0.5101348901,-0.8134448883,0.2986550114,1
996,2,-1.4680289931,-0.5101348901,-0.8134448883,0.3288755167,1
997,2,-7.7465585736,-0.5101348901,-0.8503177568,0.3503003565,1
998,2,1.2190344311,-0.5028686891,-0.8503177568,0.3192755279,1
999,2,0.7779273928,-0.5065017896,-0.8503177568,0.3260847091,1
1000,2,0.2825097493,-0.5174010911,-0.8134448883,0.3314230813,1
1001,2,-1.0650640822,-0.5210341917,-0.8134448883,0.3429187435,1
1002,2,1.3324717840,-0.5283003927,-0.8134448883,0.2784950350,1
1003,2,1.0965668112,-0.5355665937,-0.8134448883,0.2995663617,1
1004,2,3.0262488487,-0.5319334932,-0.8134448883,0.2523350656,1
1005,2,-0.1060497357,-0.5355665937,-0.8134448883,0.2348264374,1
1006,2,1.7953374654,-0.5283003927,-0.8503177568,0.2120897072,1
1007,2,-0.3994044067,-0.4992327525,-0.8503177568,0.0465677385,1
1008,2,-3.1017762833,-0.5210341917,-0.8503177568,-0.0363878402,1
1009,2,3.4076701227,-0.5210341917,-0.8503177568,-0.1142239654,1
1010,2,1.3815792356,-0.8444056618,-0.8503177568,-0.1377147488,1
1011,2,-1.5792732812,-0.5501018318,-0.8503177568,-0.1108850504,1
1012,2,-5.8062982235,-0.5464687313,-0.8626087130,-0.1671617414,1
1013,2,2.3496238490,-0.5537349323,-0.8871906253,-0.1921476581,1
1014,2,0.8248417795,-0.5501018318,-0.8871906253,-0.2306481536,1
1015,2,-2.9705077309,-0.5355665937,-0.8871906253,-0.2005541348,1
1016,2,-1.3381651546,-0.5755363715,-0.8626087130,-0.2203833008,1
1017,2,3.3126803150,-0.5573680328,-0.8626087130,-0.2518394802,1
1018,2,-0.2007385345,-0.5501018318,-0.8626087130,-0.2367227411,1
1019,2,-2.8132950840,-0.5537349323,-0.8626087130,-0.2098784482,1
1020,2,2.0010985473,-0.5428356308,-0.8626087130,-0.2559746105,1
1021,2,-0.5829338314,-0.5246672922,-0.8626087130,-0.2382843609,1
1022,2,-1.3507358537,-0.5065017896,-0.8871906253,-0.2044249411,1
1023,2,-7.6426675028,-0.5101348901,-0.8871906253,-0.1676822813,1
1024,2,-0.5134007762,-0.5319334932,-0.9117725377,-0.2467800267,1
1025,2,-2.0946005132,-0.5283003927,-0.9117725377,-0.2441757054,1
1026,2,-0.7246230195,-0.5246672922,-0.9117725377,-0.2729399961,1
1027,2,-2.9043144467,-0.5283003927,-0.9117725377,-0.2362816606,1
1028,2,3.4040006866,-0.5246672922,-0.9363544500,-0.2780026929,1
1029,2,1.7913383472,-0.5319334932,-0.9363544500,-0.2672124352,1
1030,2,-0.3312903934,-0.5428356308,-0.9363544500,-0.2646891949,1
1031,2,-0.8583999737,-0.5355665937,-0.9363544500,-0.2486221867,1
1032,2,5.5514268154,-0.5174010911,-0.9117725377,-0.1960525184,1
1033,2,-1.9053519194,-0.5137679906,-0.9117725377,-0.1209974710,1
1034,2,1.9404667551,-0.5210341917,-0.9363544500,-0.1326942141,1
1035,2,1.3124331917,-0.5283003927,-0.9363544500,-0.1513379761,1
1036,2,0.8478904608,-0.5355665937,-0.9363544500,-0.1345461038,1
1037,2,-1.1614299306,-0.5537349323,-0.9363544500,-0.1316190802,1
1038,2,0.4131906120,-0.5464687313,-0.9363544500,-0.1646579605,1
1039,2,-1.9502452464,-0.5464687313,-0.9363544500,-0.1264266538,1
1040,2,-1.0470322217,-0.5137679906,-0.9609363624,-0.2129887148,1
1041,2,1.6480151109,-0.5283003927,-0.9363544500,-0.1973238683,1
1042,2,-1.3096983131,-0.5319334932,-0.9363544500,-0.1639217452,1
1043,2,2.0846500169,-0.5210341917,-0.9363544500,-0.1779974044,1
1044,2,-1.1070333228,-0.4992327525,-0.9609363624,-0.1483185201,1
1045,2,2.2723935662,-0.4919665515,-0.9609363624,-0.1628320167,1
1046,2,1.1259796806,-0.4156657686,-0.9609363624,-0.1369088038,1
1047,2,3.0612518833,-0.4083995676,-0.9609363624,-0.1291282723,1
1048,2,0.4378733415,-0.4701679485,-0.9363544500,-0.0254873124,1
1049,2,-0.3521890111,-0.4411003083,-0.9855182747,0.0117239955,1
1050,2,-0.6565950087,-0.4411003083,-0.9855182747,-0.0094527365,1
1051,2,1.1194864886,-0.4519996098,-0.9855182747,0.0175861508,1
1052,2,0.6723162712,-0.4701679485,-0.9855182747,-0.0365727048,1
1053,2,-1.4934857455,-0.4556327103,-0.9609363624,-0.0712153670,1
1054,2,-2.0514845664,-0.4738010490,-0.9855182747,-0.1049434357,1
1055,2,1.6274175020,-0.4774341495,-0.9609363624,-0.2325535568,1
1056,2,1.8506371000,-0.4592658108,-0.9855182747,-0.2859194404,1
1057,2,-2.0427409804,-0.4556327103,-0.9855182747,-0.2707832419,1
1058,2,-0.6267521266,-0.4665348479,-1.0101001871,-0.2774805313,1
1059,2,1.3939636016,-0.4556327103,-1.0101001871,-0.3064718488,1
1060,2,-1.2261038422,-0.4628989113,-1.0101001871,-0.2744383727,1
1061,2,1.0491364092,-0.4701679485,-1.0101001871,-0.2257022135,1
1062,2,-0.7033803916,-0.4665348479,-1.0101001871,-0.1919984691,1
1063,2,0.6116128045,-0.4665348479,-1.0101001871,-0.1715563308,1
1064,2,-0.9330071789,-0.4738010490,-1.0101001871,-0.1149034241,1
1065,2,-1.5728230906,-0.4338341073,-1.0101001871,-0.0930472334,1
1066,2,-3.1630960958,-0.4338341073,-1.0101001871,-0.0789213040,1
1067,2,1.1571126008,-0.4192988691,-1.0469730556,-0.0378408114,1
1068,2,-1.5447002593,-0.4156657686,-1.0469730556,-0.0116500312,1
1069,2,1.9272223637,-0.4411003083,-1.0101001871,-0.0297781182,1
1070,2,-1.1555387565,-0.4411003083,-1.0101001871,-0.0252213667,1
1071,2,-0.7016603408,-0.4447334088,-1.0101001871,-0.0272662292,1
1072,2,2.0199761053,-0.4592658108,-1.0101001871,-0.0311289274,1
1073,2,-0.0410748152,-0.4592658108,-1.0101001871,-0.0181932668,1
1074,2,0.5402593679,-0.4483665093,-1.0469730556,0.0051645437,1
1075,2,-0.9344262209,-0.4628989113,-1.0101001871,-0.0265316355,1
1076,2,2.0466798946,-0.4665348479,-1.0101001871,-0.0861715658,1
1077,2,0.9369890944,-0.4519996098,-1.0469730556,0.0579742117,1
1078,2,-6.4916524812,-0.4774341495,-1.0101001871,0.0921320096,1
1079,2,-1.1699441823,-0.4810672500,-1.0101001871,0.0774855402,1
1080,2,1.8227722763,-0.4847003505,-1.0101001871,0.1269595365,1
1081,2,0.9545336130,-0.4701679485,-1.0469730556,0.1270098067,1
1082,2,-1.7474942535,-0.4738010490,-1.0469730556,0.1258373756,1
1083,2,1.6961765344,-0.4374672078,-1.0101001871,0.0322618093,1
1084,2,-2.2284634700,-0.4447334088,-1.0101001871,-0.0293467673,1
1085,2,0.8058352177,-0.4628989113,-1.0469730556,-0.1082028914,1
1086,2,-1.3040651466,-0.4483665093,-1.0469730556,-0.1919368475,1
1087,2,1.5690504492,-0.4411003083,-1.0469730556,-0.2043552114,1
1088,2,-1.7001068528,-0.4447334088,-1.0469730556,-0.2297303169,1
1089,2,-0.1893431977,-0.4628989113,-1.0469730556,-0.2834399838,1
1090,2,-2.1683906943,-0.4592658108,-1.0469730556,-0.2359411204,1
1091,2,2.0668474907,-0.4701679485,-1.0715549679,-0.1923811713,1
1092,2,1.3049509706,-0.4738010490,-1.0715549679,-0.1623633686,1
1093,2,0.8308189562,-0.4665348479,-1.0715549679,-0.1302601629,1
1094,2,-1.5267687293,-0.4701679485,-1.0715549679,-0.1407650155,1
1095,2,-0.7124966611,-0.4738010490,-1.0715549679,-0.1222915235,1
1096,2,-4.9517769656,-0.4556327103,-1.0469730556,-0.1181499068,1
1097,2,0.3750914858,-0.4628989113,-1.0469730556,-0.0991023615,1
1098,2,-0.2039636299,-0.4628989113,-1.0715549679,-0.1160288282,1
1099,2,1.1223245725,-0.4665348479,-1.0715549679,-0.1004742517,1
1100,2,-1.6873354753,-0.4447334088,-1.0715549679,-0.1396233952,1
1101,2,-1.7052383321,-0.4701679485,-1.0715549679,-0.3404188361,1
1102,2,1.3139812375,-0.4701679485,-1.0715549679,-0.3291972276,1
1103,2,-0.0523411482,-0.4738010490,-1.0715549679,-0.3662885356,1
1104,2,0.9332479838,-0.4701679485,-1.0715549679,-0.3718150157,1
1105,2,-2.5530800650,-0.4592658108,-1.0715549679,-0.4259933307,1
1106,2,0.8326250096,-0.4628989113,-1.0715549679,-0.3719350155,1
1107,2,-1.2840265543,-0.4556327103,-1.0715549679,-0.3437853187,1
1108,2,1.6950155001,-0.4556327103,-1.0715549679,-0.3187896722,1
1109,2,3.6433744172,-0.4701679485,-1.0715549679,-0.2639432499,1
1110,2,1.0085862106,-0.4628989113,-1.0469730556,-0.1334385375,1
1111,2,-3.9402580671,-0.4701679485,-1.0469730556,-0.1355352918,1
1112,2,0.5880767812,-0.4628989113,-1.0469730556,-0.1012445211,1
1113,2,0.4185657708,-0.4665348479,-1.0469730556,-0.1131407234,1
1114,2,1.7968855112,-0.4883334510,-1.0838459241,-0.2204660034,1
1115,2,0.4046333590,-0.4701679485,-1.0838459241,-0.2269054553,1
1116,2,2.2498609002,-0.4774341495,-1.0715549679,-0.2359119313,1
1117,2,1.5091640067,-0.4919665515,-1.0715549679,-0.1911098215,1
1118,2,-2.0607155117,-0.4883334510,-1.0715549679,-0.1797649699,1
1119,2,-2.9740625084,-0.4955996520,-1.0715549679,-0.0524986322,1
1120,2,1.4015748266,-0.4774341495,-1.0715549679,0.0274812744,1
1121,2,1.6864152459,-0.4955996520,-1.0838459241,0.1395595217,1
1122,2,2.1657504141,-0.4919665515,-1.0838459241,0.0681287944,1
1123,2,2.7685852326,-0.4883334510,-1.0838459241,0.0100521055,1
1124,2,1.3809342165,-0.4847003505,-1.0838459241,-0.1969038688,1
1125,2,-9.6420976019,-0.4992327525,-1.0838459241,-0.3137950835,1
1126,2,3.2068828602,-0.4992327525,-1.0838459241,-0.3528112541,1
1127,2,-1.2701801451,-0.4847003505,-1.1084278365,-0.4090474046,1
1128,2,1.2706359563,-0.4847003505,-1.1084278365,-0.4462943881,1
1129,2,-0.6845028336,-0.4992327525,-1.1084278365,-0.4115982124,1
1130,2,-1.6129862777,-0.4955996520,-1.1084278365,-0.4282425173,1
1131,2,-0.5828478289,-0.4810672500,-1.1084278365,-0.3699809638,1
1132,2,1.1764201715,-0.4919665515,-1.1084278365,-0.3073961720,1
1133,2,-5.9920637143,-0.4847003505,-1.1084278365,-0.2377800372,1
1134,2,1.4151632282,-0.5028686891,-1.1084278365,-0.1608990460,1
1135,2,1.5263645151,-0.4955996520,-1.0838459241,-0.1102331593,1
1136,2,-0.3407793463,-0.5028686891,-1.0838459241,-0.0824337323,1
1137,2,-1.8902584733,-0.5065017896,-1.0838459241,-0.0889412923,1
1138,2,1.8163650870,-0.4955996520,-1.0838459241,-0.0615164594,1
1139,2,0.8775183365,-0.4883334510,-1.0838459241,-0.0803840050,1
1140,2,2.4394965055,-0.4955996520,-1.1084278365,-0.0900050748,1
1141,2,1.7702247231,-0.4919665515,-1.1084278365,-0.1332861053,1
1142,2,1.9230942416,-0.4701679485,-1.1084278365,-0.2310178829,1
1143,2,1.3382769556,-0.4847003505,-1.1084278365,-0.2622697383,1
1144,2,-0.7270740919,-0.4919665515,-1.1084278365,-0.2850080901,1
1145,2,1.8313725305,-0.4992327525,-1.1084278365,-0.3037767168,1
1146,2,-3.6918827257,-0.4992327525,-1.1084278365,-0.3567355738,1
1147,2,-1.7867114127,-0.4992327525,-1.1084278365,-0.3580474642,1
1148,2,-0.9739873902,-0.4919665515,-1.1084278365,-0.3440642373,1
1149,2,1.9887141812,-0.4955996520,-1.1330097488,-0.3251577729,1
1150,2,1.9416277895,-0.4883334510,-1.1330097488,-0.3155934598,1
1151,2,1.2486623068,-0.4847003505,-1.1330097488,-0.3093988724,1
1152,2,-0.2925032469,-0.4883334510,-1.1084278365,-0.2486643488,1
1153,2,0.6761147111,-0.4774341495,-1.1084278365,-0.2146589831,1
1154,2,2.2412176447,-0.4919665515,-1.1084278365,-0.1961838696,1
1155,2,-0.5575200803,-0.4955996520,-1.1084278365,-0.2021854842,1
1156,2,1.7421878944,-0.4883334510,-1.1084278365,-0.2224946497,1
1157,2,-3.4357671554,-0.4883334510,-1.1084278365,-0.1684882263,1
1158,2,-0.7680543032,-0.4810672500,-1.1084278365,-0.0318440617,1
1159,2,-0.6189688966,-0.4738010490,-1.1084278365,-0.0428029678,1
1160,2,0.5606849716,-0.4847003505,-1.1084278365,-0.0512807957,1
1161,2,-3.7777562639,-0.4883334510,-1.1084278365,-0.0781477914,1
1162,2,1.5822661675,-0.4883334510,-1.1575916612,-0.0739137423,1
1163,2,1.6116790368,-0.4883334510,-1.1575916612,-0.1228915228,1
1164,2,-0.4461611163,-0.4847003505,-1.1084278365,-0.1400709622,1
1165,2,1.8304695038,-0.4847003505,-1.1084278365,-0.1617633693,1
1166,2,-2.2729267842,-0.4883334510,-1.1084278365,-0.1778806478,1
1167,2,1.6050138398,-0.4701679485,-1.1575916612,-0.3076361718,1
1168,2,1.2349019001,-0.4847003505,-1.1575916612,-0.3261647988,1
1169,2,-1.7051810028,-0.4810672500,-1.1084278365,-0.3282631747,1
1170,2,1.3997401000,-0.4847003505,-1.1084278365,-0.3172945389,1
1171,2,0.4165877124,-0.4810672500,-1.1575916612,-0.2523843445,1
1172,2,-1.7170493536,-0.4883334510,-1.1330097488,-0.2429675987,1
1173,2,-1.2292859363,-0.4847003505,-1.1330097488,-0.1778384856,1
1174,2,1.4905444564,-0.4774341495,-1.1330097488,-0.1534428385,1
1175,2,1.0261307292,-0.4919665515,-1.1330097488,-0.1295271908,1
1176,2,-1.1423230383,-0.4919665515,-1.1575916612,-0.1047261387,1
1177,2,-2.2956744566,-0.4883334510,-1.1575916612,-0.0522537676,1
1178,2,-0.7533048673,-0.4883334510,-1.1575916612,-0.0331316278,1
1179,2,1.7947211196,-0.4810672500,-1.1575916612,-0.0166429984,1
1180,2,1.1970177803,-0.4847003505,-1.1330097488,-0.0478689078,1
1181,2,1.3752580487,-0.4738010490,-1.1575916612,-0.0250089346,1
1182,2,1.7869522176,-0.4774341495,-1.1575916612,-0.1353601569,1
1183,2,0.6528796967,-0.4774341495,-1.1575916612,-0.2004811619,1
1184,2,-1.5216515780,-0.4738010490,-1.1575916612,-0.2675156781,1
1185,2,0.4945920180,-0.4774341495,-1.1575916612,-0.3166458910,1
1186,2,-2.6777550777,-0.4774341495,-1.1575916612,-0.3988101192,1
1187,2,0.6784654530,-0.4701679485,-1.1575916612,-0.3908901285,1
1188,2,-1.1398432926,-0.4774341495,-1.1575916612,-0.3948420158,1
1189,2,-0.6449989936,-0.4810672500,-1.1575916612,-0.3630923232,1
1190,2,1.2628097250,-0.4810672500,-1.1575916612,-0.3498145008,1
1191,2,-1.7684358725,-0.4701679485,-1.1575916612,-0.3004005045,1
1192,2,1.2717969906,-0.4665348479,-1.1575916612,-0.2712794575,1
1193,2,-1.1271149163,-0.4738010490,-1.1575916612,-0.2316243687,1
1194,2,-1.2059362461,-0.4665348479,-1.1575916612,-0.1737390310,1
1195,2,0.0195999782,-0.4701679485,-1.1575916612,-0.0417262123,1
1196,2,3.1891806646,-0.4701679485,-1.1575916612,-0.0074467929,1
1197,2,-6.6507141827,-0.4665348479,-1.1821735735,-0.0169608359,1
1198,2,3.3361733370,-0.4701679485,-1.1575916612,-0.0347208151,1
1199,2,0.1338113541,-0.4738010490,-1.1575916612,-0.0429132379,1
1200,2,0.7653280204,-0.4774341495,-1.1575916612,-0.2210060028,1
1201,2,-0.8604640347,-0.4774341495,-1.1821735735,-0.2590670393,1
1202,2,-1.7079760854,-0.4810672500,-1.1821735735,-0.2568648798,1
1203,2,-1.2625689201,-0.4738010490,-1.1821735735,-0.3030210420,1
1204,2,-0.3807418551,-0.4847003505,-1.1575916612,-0.1724741676,1
1205,2,2.2420346689,-0.4738010490,-1.1575916612,-0.1798022671,1
1206,2,-1.8254555579,-0.4738010490,-1.1821735735,-0.1622190444,1
1207,2,2.9039532338,-0.4701679485,-1.1821735735,-0.1654103921,1
1208,2,2.1623103124,-0.4628989113,-1.1575916612,-0.1262904378,1
1209,2,0.6065243265,-0.4592658108,-1.1575916612,-0.1262093568,1
1210,2,-1.2540976697,-0.4701679485,-1.2067554858,-0.1311650267,1
1211,2,1.6281055224,-0.4810672500,-1.1821735735,-0.1162720711,1
1212,2,-1.6386150352,-0.4774341495,-1.1821735735,-0.1200099046,1
1213,2,-0.4431223713,-0.4738010490,-1.2067554858,-0.1256515196,1
1214,2,1.6235903889,-0.4883334510,-1.1821735735,-0.1152115318,1
1215,2,0.0116017418,-0.4810672500,-1.1821735735,-0.1016937098,1
1216,2,1.9221482137,-0.4810672500,-1.1821735735,-0.1287325971,1
1217,2,-0.8487676890,-0.4701679485,-1.2067554858,-0.1478044667,1
1218,2,3.8577644266,-0.4810672500,-1.2067554858,-0.1529433796,1
1219,2,-5.4890348458,-0.4774341495,-1.1821735735,-0.2111157440,1
1220,2,2.7838936851,-0.4810672500,-1.1821735735,-0.2168578995,1
1221,2,0.7648120052,-0.4774341495,-1.2067554858,-0.2270189687,1
1222,2,-0.3197230515,-0.4810672500,-1.2067554858,-0.2647037895,1
1223,2,1.5912534331,-0.4810672500,-1.2067554858,-0.2572232577,1
1224,2,1.6289225465,-0.4810672500,-1.1821735735,-0.3079410363,1
1225,2,0.8584974467,-0.4810672500,-1.1821735735,-0.3368999213,1
1226,2,1.2674108610,-0.4738010490,-1.2067554858,-0.3051226612,1
1227,2,-1.3882616353,-0.4738010490,-1.2067554858,-0.3347431671,1
1228,2,1.9648054745,-0.4738010490,-1.1821735735,-0.3186956183,1
1229,2,0.6518046649,-0.4883334510,-1.1821735735,-0.3313150630,1
1230,2,-0.8284280878,-0.4919665515,-1.1821735735,-0.3265702037,1
1231,2,-0.6579710494,-0.4774341495,-1.1821735735,-0.2644232493,1
1232,2,1.2380409929,-0.4847003505,-1.1821735735,-0.2323346382,1
1233,2,-0.4713885344,-0.4919665515,-1.1821735735,-0.2369011193,1
1234,2,-0.4906101025,-0.4847003505,-1.1821735735,-0.1998033248,1
1235,2,0.7302819845,-0.4847003505,-1.2067554858,-0.1810525359,1
1236,2,-1.3175675457,-0.4883334510,-1.2067554858,-0.1156007206,1
1237,2,1.0190355195,-0.4847003505,-1.2067554858,-0.1264688160,1
1238,2,0.5972790532,-0.4774341495,-1.2067554858,-0.1046320847,1
1239,2,-1.1852956360,-0.4701679485,-1.2313373982,-0.1137488308,1
1240,2,0.9093392771,-0.4810672500,-1.2313373982,-0.1095747817,1
1241,2,-0.2270983137,-0.4883334510,-1.2313373982,-0.0928948011,1
1242,2,-0.1604893448,-0.4919665515,-1.2313373982,-0.0960245272,1
1243,2,-2.0216273563,-0.4847003505,-1.1821735735,-0.0747553629,1
1244,2,-1.6454522373,-0.4810672500,-1.1821735735,-0.1010256025,1
1245,2,-0.8493267055,-0.4810672500,-1.2313373982,-0.0818418411,1
1246,2,1.4579924942,-0.4774341495,-1.2067554858,-0.1087607285,1
1247,2,-0.4469638125,-0.4628989113,-1.2067554858,-0.1079726214,1
1248,2,-0.8651655012,-0.4919665515,-1.1821735735,-0.1802903747,1
1249,2,1.6069488970,-0.4919665515,-1.2067554858,-0.1806438878,1
1250,2,3.4843843902,-0.4738010490,-1.1821735735,-0.0824061648,1
1251,2,3.0443093825,-0.4847003505,-1.2067554858,-0.0016754483,1
1252,2,1.6703040973,-0.4774341495,-1.2067554858,0.0174077726,1
1253,2,2.6330452264,-0.4665348479,-1.2067554858,0.0398509896,1
1254,2,-3.3549677671,-0.4847003505,-1.2313373982,0.0474012511,1
1255,2,1.7214469538,-0.4774341495,-1.1821735735,-0.0650645634,1
1256,2,0.0199009871,-0.4774341495,-1.2067554858,-0.0875596722,1
1257,2,-3.2104834965,-0.4774341495,-1.2067554858,-0.1333477268,1
1258,2,2.0113758511,-0.4847003505,-1.2067554858,-0.1430060939,1
1259,2,0.9553936384,-0.4738010490,-1.1821735735,-0.2125573640,1
1260,2,-1.3776833226,-0.4738010490,-1.1821735735,-0.2773929639,1
1261,2,1.7049057924,-0.4810672500,-1.1821735735,-0.2857394406,1
1262,2,-1.3586767608,-0.4883334510,-1.2067554858,-0.3289734441,1
1263,2,-1.9308946744,-0.4774341495,-1.2067554858,-0.3420291045,1
1264,2,1.8977664930,-0.4738010490,-1.2067554858,-0.3401464040,1
1265,2,0.4553318576,-0.4919665515,-1.2067554858,-0.3302707399,1
1266,2,0.8606618383,-0.4774341495,-1.2313373982,-0.3317301977,1
1267,2,1.5007070843,-0.4738010490,-1.2067554858,-0.3103929253,1
1268,2,-0.2300654014,-0.4883334510,-1.2067554858,-0.3247264221,1
1269,2,2.4840028210,-0.4810672500,-1.2067554858,-0.3112394108,1
1270,2,-1.0724172996,-0.4774341495,-1.2067554858,-0.2863961966,1
1271,2,-6.2884284743,-0.4738010490,-1.2313373982,-0.3050123910,1
1272,2,1.9520770983,-0.4847003505,-1.2313373982,-0.2837334970,1
1273,2,0.6000311346,-0.4883334510,-1.2313373982,-0.2784470167,1
1274,2,-1.3410462397,-0.4919665515,-1.2313373982,-0.2518394802,1
1275,2,0.2739524964,-0.4665348479,-1.2313373982,-0.1609558027,1
1276,2,-0.1080707955,-0.4774341495,-1.2313373982,-0.1591412102,1
1277,2,0.2650942345,-0.4738010490,-1.2313373982,-0.1506925714,1
1278,2,0.4037733336,-0.4774341495,-1.2313373982,-0.1139628846,1
1279,2,-1.8682848238,-0.4883334510,-1.2067554858,-0.1055791106,1
1280,2,0.2287581605,-0.4810672500,-1.2067554858,-0.0940591241,1
1281,2,-0.0088238619,-0.4847003505,-1.2067554858,-0.0668678045,1
1282,2,1.8425528610,-0.4701679485,-1.2313373982,-0.0664007781,1
1283,2,0.9083502479,-0.4665348479,-1.2313373982,-0.0682267219,1
1284,2,-0.6437949580,-0.4592658108,-1.2313373982,-0.0606715956,1
1285,2,-0.2907831961,-0.4810672500,-1.2313373982,-0.0518645788,1
1286,2,-0.4573701200,-0.4774341495,-1.2313373982,-0.0388851345,1
1287,2,2.2901960924,-0.4774341495,-1.2313373982,-0.0328883848,1
1288,2,0.3487890360,-0.4810672500,-1.2313373982,-0.0389467561,1
1289,2,1.4450061103,-0.4810672500,-1.2067554858,-0.0263127168,1
1290,2,-2.5633573687,-0.4810672500,-1.2067554858,-0.0437694532,1
1291,2,-1.9592755133,-0.4774341495,-1.2067554858,-0.0365467589,1
1292,2,-0.8858634578,-0.4847003505,-1.2682102667,-0.0055024709,1
1293,2,-0.4492858811,-0.4810672500,-1.2313373982,-0.0076040900,1
1294,2,-2.8640222558,-0.4701679485,-1.2313373982,-0.0432213457,1
1295,2,1.9327838557,-0.4738010490,-1.2682102667,-0.0298024425,1
1296,2,1.0874075404,-0.4774341495,-1.2682102667,0.0224672262,1
1297,2,-1.4999789374,-0.4774341495,-1.2682102667,0.0063823801,1
1298,2,1.6603278024,-0.4665348479,-1.2682102667,-0.0779921159,1
1299,2,0.4618680508,-0.4665348479,-1.2313373982,-0.0353986521,1
1300,2,1.5571964265,-0.4483665093,-1.2313373982,-0.0177440782,1
1301,2,-3.3442747787,-0.4701679485,-1.2067554858,-0.1232320630,1
1302,2,-0.3012325049,-0.4338341073,-1.2682102667,-0.1392731253,1
1303,2,0.8488364888,-0.4774341495,-1.2682102667,-0.1543768914,1
1304,2,0.8428163108,-0.4701679485,-1.2682102667,-0.1303152979,1
1305,2,2.0893801567,-0.4847003505,-1.2313373982,-0.1927736033,1
1306,2,1.5152128579,-0.4701679485,-1.2682102667,-0.1773292970,1
1307,2,0.4960970625,-0.4774341495,-1.2682102667,-0.1992211634,1
1308,2,0.3585789978,-0.4738010490,-1.2313373982,-0.1600331011,1
1309,2,1.0867625214,-0.4519996098,-1.2313373982,-0.1778774045,1
1310,2,1.1048087272,-0.4701679485,-1.2313373982,-0.1656179594,1
1311,2,-1.4175455009,-0.4774341495,-1.2682102667,-0.1690590364,1
1312,2,-5.6576858308,-0.4738010490,-1.2682102667,-0.1879022577,1
1313,2,2.1687605030,-0.4738010490,-1.2682102667,-0.1740990306,1
1314,2,-0.1529641224,-0.4701679485,-1.2682102667,-0.1289077320,1
1315,2,-0.6544879464,-0.4738010490,-1.2682102667,-0.1361531290,1
1316,2,-0.0772818854,-0.4701679485,-1.2682102667,-0.1137731551,1
1317,2,0.7347971180,-0.4665348479,-1.2682102667,-0.1382320455,1
1318,2,0.8823774802,-0.4592658108,-1.2682102667,-0.1311844861,1
1319,2,1.5307936460,-0.4665348479,-1.2682102667,-0.1405996103,1
1320,2,-0.1432458352,-0.4665348479,-1.2682102667,-0.1320212419,1
1321,2,0.6248428680,-0.4665348479,-1.2313373982,-0.1190401760,1
1322,2,1.3817942419,-0.4374672078,-1.2313373982,-0.1029942488,1
1323,2,0.5313151035,-0.4774341495,-1.2313373982,-0.1236796300,1
1324,2,-2.7587981456,-0.4774341495,-1.2313373982,-0.1444460922,1
1325,2,1.9284694005,-0.4665348479,-1.2313373982,-0.1678979567,1
1326,2,1.1517374419,-0.4774341495,-1.2313373982,-0.1280774627,1
1327,2,-0.2356985679,-0.4701679485,-1.2805012229,-0.1242617915,1
1328,2,0.0426773327,-0.4701679485,-1.2805012229,-0.1067920822,1
1329,2,1.5648936540,-0.4774341495,-1.2805012229,-0.1126007241,1
1330,2,1.3884164377,-0.4701679485,-1.2682102667,-0.1088028907,1
1331,2,-0.5145188092,-0.4665348479,-1.2682102667,-0.1127563996,1
1332,2,2.5102049230,-0.4665348479,-1.2682102667,-0.1047358684,1
1333,2,-3.8112542540,-0.4738010490,-1.2682102667,-0.1169807189,1
1334,2,0.7782284017,-0.4738010490,-1.2682102667,-0.1105055914,1
1335,2,1.0634128312,-0.4701679485,-1.2682102667,-0.1359066428,1
1336,2,-0.2638213991,-0.4738010490,-1.2682102667,-0.1384460993,1
1337,2,-1.3250497669,-0.4810672500,-1.2682102667,-0.1420866355,1
1338,2,0.9725081443,-0.4847003505,-1.2682102667,-0.1534298655,1
1339,2,1.1515224356,-0.4665348479,-1.2682102667,-0.1526887853,1
1340,2,-0.9034653057,-0.4665348479,-1.2682102667,-0.1365731285,1
1341,2,1.9612793703,-0.4738010490,-1.2682102667,-0.1624703955,1
1342,2,0.2644492155,-0.4701679485,-1.2682102667,-0.1465233871,1
1343,2,-3.3406913452,-0.4738010490,-1.2805012229,-0.1646336362,1
1344,2,-1.6850994092,-0.4738010490,-1.2805012229,-0.1468525759,1
1345,2,-2.5194530710,-0.4810672500,-1.2805012229,-0.1581390492,1
1346,2,-0.8429768454,-0.4847003505,-1.2805012229,-0.1288234078,1
1347,2,-0.5283652185,-0.4665348479,-1.2805012229,-0.1050018140,1
1348,2,-1.1573448099,-0.4665348479,-1.2805012229,-0.1235790896,1
1349,2,0.8190366079,-0.4701679485,-1.2682102667,-0.1149261267,1
1350,2,-0.9143446273,-0.4738010490,-1.2682102667,-0.1303834060,1
1351,2,1.6770839701,-0.4701679485,-1.2682102667,-0.1295466502,1
1352,2,-1.0590152310,-0.4665348479,-1.2682102667,-0.1132526152,1
1353,2,-1.6989028172,-0.4592658108,-1.2682102667,-0.1332569161,1
1354,2,1.0156814204,-0.4483665093,-1.3050831352,-0.1174234211,1
1355,2,-0.8595610080,-0.4628989113,-1.3050831352,-0.1351055626,1
1356,2,2.7638980941,-0.4738010490,-1.2682102667,-0.1041845177,1
1357,2,-0.1749377719,-0.4738010490,-1.2805012229,-0.0784688721,1
1358,2,2.4680923507,-0.4701679485,-1.2682102667,-0.0664883455,1
1359,2,-5.6529126897,-0.4774341495,-1.2682102667,-0.0628688903,1
1360,2,-1.7872274279,-0.4701679485,-1.2805012229,-0.0808526531,1
1361,2,3.4775471881,-0.4810672500,-1.2805012229,-0.0803775185,1
1362,2,-3.8643608238,-0.4774341495,-1.2805012229,-0.1148077485,1
1363,2,2.2689964658,-0.4701679485,-1.2805012229,-0.1071407304,1
1364,2,-0.9146886374,-0.4701679485,-1.3050831352,-0.1477914937,1
1365,2,1.1675189084,-0.4665348479,-1.3050831352,-0.1562401325,1
1366,2,-0.8090775158,-0.4519996098,-1.3050831352,-0.1902730657,1
1367,2,-1.3752752515,-0.4592658108,-1.3050831352,-0.2484535382,1
1368,2,-1.6412381128,-0.4628989113,-1.2805012229,-0.3148750822,1
1369,2,1.2688729042,-0.4592658108,-1.2805012229,-0.2968588871,1
1370,2,1.3866103843,-0.4592658108,-1.3050831352,-0.3511604452,1
1371,2,-5.5958930043,-0.4701679485,-1.3050831352,-0.3526880110,1
1372,2,-0.1459549152,-0.4628989113,-1.2682102667,-0.3916847222,1
1373,2,-2.4292364044,-0.4738010490,-1.2805012229,-0.4476241162,1
1374,2,2.2905831039,-0.4338341073,-1.2805012229,-0.4511560040,1
1375,2,-0.3394176336,-0.4738010490,-1.2805012229,-0.4442106067,1
1376,2,-1.4562036435,-0.4665348479,-1.2805012229,-0.5529191283,1
1377,2,1.4306006845,-0.4701679485,-1.2805012229,-0.5024899981,1
1378,2,-0.5153071601,-0.4738010490,-1.2805012229,-0.5079645863,1
1379,2,1.3586165568,-0.4665348479,-1.3050831352,-0.3945485026,1
1380,2,0.0712445047,-0.4665348479,-1.3050831352,-0.3757571732,1
1381,2,-4.5848901211,-0.4628989113,-1.3050831352,-0.3006891529,1
1382,2,1.3422904019,-0.4701679485,-1.2682102667,-0.2717432407,1
1383,2,-0.1738197389,-0.4774341495,-1.2682102667,-0.2119606079,1
1384,2,-1.1904987898,-0.4483665093,-1.3050831352,-0.0879731853,1
1385,2,-1.0043176143,-0.4665348479,-1.2805012229,-0.0331964925,1
1386,2,0.3757365049,-0.4665348479,-1.2805012229,-0.0083889540,1
1387,2,0.1944861475,-0.4665348479,-1.2805012229,0.0017980611,1
1388,2,1.3113294867,-0.4628989113,-1.3050831352,-0.0400478359,1
1389,2,1.6165811817,-0.4665348479,-1.3050831352,-0.1164731520,1
1390,2,1.0256577152,-0.4665348479,-1.3050831352,-0.1418223115,1
1391,2,2.5090582340,-0.4665348479,-1.3050831352,-0.1959617077,1
1392,2,0.3415934957,-0.4701679485,-1.3050831352,-0.2427486800,1
1393,2,1.0753241833,-0.4774341495,-1.3050831352,-0.2589519043,1
1394,2,-3.0411874924,-0.4701679485,-1.3050831352,-0.2903691649,1
1395,2,2.7638980941,-0.4701679485,-1.3050831352,-0.2515638049,1
1396,2,-0.3363215421,-0.4665348479,-1.3296650476,-0.2304876133,1
1397,2,0.6751400271,-0.4810672500,-1.3296650476,-0.1768541625,1
1398,2,3.3206785514,-0.4701679485,-1.3296650476,-0.1183396363,1
1399,2,-5.0487448317,-0.4556327103,-1.2805012229,-0.1006639813,1
1400,2,-2.4589502827,-0.4738010490,-1.2805012229,-0.0736315804,1
1401,2,0.0063555867,-0.4738010490,-1.3050831352,-0.0368954071,1
1402,2,-5.3646751700,-0.4665348479,-1.3050831352,-0.0195911030,1
1403,2,1.8506801012,-0.4774341495,-1.3050831352,-0.0174116461,1
1404,2,-2.2452769669,-0.4738010490,-1.3050831352,-0.0850202158,1
1405,2,2.5823897291,-0.4556327103,-1.3050831352,-0.0719077987,1
1406,2,-0.2329894878,-0.4738010490,-1.3050831352,-0.0983337137,1
1407,2,-0.0782279134,-0.4738010490,-1.3050831352,-0.1912006322,1
1408,2,-1.9566524358,-0.4628989113,-1.3050831352,-0.1953649516,1
1409,2,1.4110351062,-0.4483665093,-1.3050831352,-0.1640287721,1
1410,2,-1.2191806376,-0.4592658108,-1.3050831352,-0.2177287093,1
1411,2,2.2443137362,-0.4556327103,-1.3050831352,-0.2188622215,1
1412,2,1.7986915646,-0.4738010490,-1.3050831352,-0.3135648135,1
1413,2,1.2835793389,-0.4628989113,-1.3050831352,-0.2868340339,1
1414,2,-0.0865271587,-0.4701679485,-1.3050831352,-0.2953086186,1
1415,2,-3.2313391129,-0.4810672500,-1.3050831352,-0.2217097857,1
1416,2,2.4205902742,-0.4701679485,-1.3050831352,-0.1827487502,1
1417,2,0.3004412793,-0.4701679485,-1.3050831352,-0.1605844518,1
1418,2,1.6746328976,-0.4628989113,-1.3296650476,-0.0971012827,1
1419,2,0.4048483654,-0.4701679485,-1.3296650476,-0.0881385905,1
1420,2,1.7954234680,-0.4774341495,-1.3296650476,-0.0540245763,1
1421,2,2.6917419613,-0.4774341495,-1.3296650476,-0.0374710821,1
1422,2,-1.2205996796,-0.4665348479,-1.3050831352,0.0497623294,1
1423,2,-2.9969391845,-0.4628989113,-1.3050831352,0.0703893323,1
1424,2,0.3943560553,-0.4628989113,-1.3050831352,0.0717125740,1
1425,2,-1.2920677920,-0.4665348479,-1.3050831352,0.0547423236,1
1426,2,3.0321830241,-0.4628989113,-1.3050831352,0.0560850247,1
1427,2,-1.0510026666,-0.4628989113,-1.3542469599,0.0250780339,1
1428,2,-0.2685945402,-0.4665348479,-1.3542469599,0.0047461658,1
1429,2,-1.6759831398,-0.4738010490,-1.3542469599,-0.0446872899,1
1430,2,0.4987201400,-0.4701679485,-1.3050831352,-0.0771764411,1
1431,2,0.2058528111,-0.4701679485,-1.3050831352,-0.1289336779,1
1432,2,0.4183937658,-0.4701679485,-1.3050831352,-0.1457223070,1
1433,2,-4.7707416145,-0.4774341495,-1.2805012229,-0.1976579219,1
1434,2,0.1085266067,-0.4774341495,-1.2805012229,-0.2284751832,1
1435,2,0.4225218878,-0.4556327103,-1.3050831352,-0.2620524413,1
1436,2,3.9097099620,-0.4738010490,-1.3050831352,-0.2907486239,1
1437,2,-7.5659102340,-0.4847003505,-1.3050831352,-0.2787518812,1
1438,2,1.5538423273,-0.4665348479,-1.3050831352,-0.2065573710,1
1439,2,0.3124386339,-0.4628989113,-1.3050831352,-0.1655093109,1
1440,2,-1.6004729078,-0.4810672500,-1.3050831352,-0.0847867025,1
1441,2,-0.7553689283,-0.4665348479,-1.3296650476,-0.0657424005,1
1442,2,-0.6819227574,-0.4374672078,-1.3296650476,-0.0429116163,1
1443,2,0.8310912919,-0.4701679485,-1.3050831352,0.1317546660,1
1444,2,2.3675553790,-0.4519996098,-1.3050831352,0.1433719497,1
1445,2,2.0892081516,-0.4592658108,-1.3050831352,0.1499005907,1
1446,2,2.2607975511,-0.4701679485,-1.3296650476,0.1047514543,1
1447,2,-0.1825489969,-0.4701679485,-1.3296650476,0.1019979440,1
1448,2,-1.3938518005,-0.4592658108,-1.3542469599,0.0199147967,1
1449,2,2.0786298390,-0.4738010490,-1.3296650476,-0.0126765165,1
1450,2,-3.8383020535,-0.4701679485,-1.3296650476,-0.0418137798,1
1451,2,-2.6585478548,-0.4701679485,-1.3050831352,-0.0647726719,1
1452,2,0.5277029967,-0.4738010490,-1.3296650476,-0.0478543133,1
1453,2,1.0121553161,-0.4847003505,-1.3050831352,-0.0378700006,1
1454,2,2.9178856457,-0.4847003505,-1.3050831352,-0.0412040508,1
1455,2,1.8794479516,-0.4810672500,-1.3542469599,-0.0397640524,1
1456,2,-1.6562025551,-0.4847003505,-1.3542469599,-0.0546991701,1
1457,2,1.2548974911,-0.4847003505,-1.3542469599,-0.0431840484,1
1458,4,0.6456124819,-0.3577375268,1.2514357489,-0.9201446450,1
1459,4,-1.7032316176,-0.3577375268,1.2514357489,-1.0270239795,1
1460,4,1.7215472843,-0.3541072624,1.2514357489,-0.9998683356,1
1461,4,1.9608063563,-0.3577375268,1.2514357489,-0.9478597477,1
1462,4,0.2271241122,-0.3613706273,1.2514357489,-0.9757159314,1
1463,4,-1.2756843077,-0.3613706273,1.2514357489,-0.9829726797,1
1464,4,0.4057083908,-0.3541072624,1.2514357489,-0.9054268244,1
1465,4,0.4802295935,-0.3504741619,1.2268538366,-0.8824938782,1
1466,4,1.2462112344,-0.3686368283,1.2268538366,-0.9158522176,1
1467,4,2.9634669930,-0.4013318967,1.2268538366,-0.9252803147,1
1468,4,-6.4962536172,-0.4122311982,1.2268538366,-0.9063252017,1
1469,4,-0.1644024605,-0.4158614625,1.2514357489,-0.8217512465,1
1470,4,1.5661836921,-0.4122311982,1.2514357489,-0.7494172770,1
1471,4,0.7722512251,-0.4085980977,1.2514357489,-0.7149059660,1
1472,4,-0.2466638920,-0.4085980977,1.2514357489,-0.6729708799,1
1473,4,0.0149558410,-0.4085980977,1.2268538366,-0.6723157455,1
1474,4,-0.1945463515,-0.4158614625,1.2268538366,-0.5781418015,1
1475,4,-0.6493277939,-0.4122311982,1.2268538366,-0.5075364786,1
1476,4,0.5952149922,-0.4231276635,1.2268538366,-0.4218273896,1
1477,4,-0.4244311464,-0.4267607641,1.2268538366,-0.4188079337,1
1478,4,0.7469234764,-0.4231276635,1.2268538366,-0.4180603670,1
1479,4,-2.6192590211,-0.4194945630,1.2268538366,-0.3705258280,1
1480,4,0.5205217845,-0.4194945630,1.2268538366,-0.4526738401,1
1481,4,0.5110185036,-0.4194945630,1.2268538366,-0.5050181032,1
1482,4,-0.0049967488,-0.4049649972,1.2268538366,-0.5004370275,1
1483,4,0.9358280601,-0.4158614625,1.2268538366,-0.4994608124,1
1484,4,-1.2313499973,-0.4158614625,1.2268538366,-0.4730835459,1
1485,4,0.0710294984,-0.4194945630,1.2268538366,-0.4796802950,1
1486,4,-1.1798344746,-0.4158614625,1.2268538366,-0.4090684856,1
1487,4,0.6803575089,-0.4158614625,1.2268538366,-0.3927712074,1
1488,4,0.4291870848,-0.4122311982,1.2268538366,-0.3568069251,1
1489,4,-0.0097268886,-0.4158614625,1.2268538366,-0.3587625985,1
1490,4,0.7390112426,-0.4231276635,1.2268538366,-0.3335107361,1
1491,4,-2.0356457707,-0.4303938646,1.2268538366,-0.2238146481,1
1492,4,0.7601678679,-0.4303938646,1.1899809681,-0.2052341293,1
1493,4,0.4478926377,-0.4340269651,1.1899809681,-0.2099514211,1
1494,4,-0.9291513925,-0.4303938646,1.1899809681,-0.2038200769,1
1495,4,0.5616740008,-0.4303938646,1.1899809681,-0.2170946560,1
1496,4,0.5847656834,-0.4194945630,1.2268538366,-0.2357627423,1
1497,4,0.7946548873,-0.4231276635,1.2268538366,-0.2642318982,1
1498,4,-0.3738616517,-0.4231276635,1.2268538366,-0.2659281124,1
1499,4,-0.9207231434,-0.4231276635,1.1899809681,-0.2772080992,1
1500,4,-1.0693642093,-0.4412903299,1.1776900119,-0.2895615983,1
1501,4,0.5844360012,-0.4376600656,1.1776900119,-0.3092123861,1
1502,4,0.3003552768,-0.4340269651,1.1899809681,-0.3155983246,1
1503,4,-0.8728484007,-0.4412903299,1.1899809681,-0.3065415784,1
1504,4,0.3002262730,-0.4340269651,1.1899809681,-0.3359123549,1
1505,4,0.8373981507,-0.4340269651,1.1899809681,-0.3456307219,1
1506,4,-0.3751516898,-0.4376600656,1.1899809681,-0.3359042468,1
1507,4,-0.4679914340,-0.4303938646,1.1776900119,-0.3425366715,1
1508,4,0.2075728619,-0.4340269651,1.1899809681,-0.3971236347,1
1509,4,0.7883337004,-0.3940656957,1.1899809681,-0.4377419656,1
1510,4,0.6578678441,-0.4376600656,1.1776900119,-0.4492003306,1
1511,4,-0.2971903855,-0.3577375268,1.1776900119,-0.4290711650,1
1512,4,0.4041173438,-0.4013318967,1.1776900119,-0.4501538430,1
1513,4,-2.1584143995,-0.4449234304,1.1776900119,-0.4342684562,1
1514,4,-1.2923257996,-0.4303938646,1.1776900119,-0.4490884389,1
1515,4,0.4335732144,-0.4267607641,1.1776900119,-0.5012137833,1
1516,4,0.7499765667,-0.4267607641,1.1776900119,-0.5120056626,1
1517,4,-0.2830429673,-0.4340269651,1.1531080995,-0.5643385744,1
1518,4,-0.6766766023,-0.4412903299,1.1531080995,-0.5384315777,1
1519,4,0.7132104799,-0.4412903299,1.1531080995,-0.5825331477,1
1520,4,-1.0538837518,-0.4449234304,1.1531080995,-0.5478694045,1
1521,4,0.5322611314,-0.4412903299,1.1531080995,-0.5721677545,1
1522,4,-0.9381673314,-0.4376600656,1.1531080995,-0.5562110163,1
1523,4,0.6008481587,-0.4340269651,1.1531080995,-0.6080704152,1
1524,4,-0.6704844193,-0.4376600656,1.1531080995,-0.6004163701,1
1525,4,0.9631338672,-0.4376600656,1.1531080995,-0.6214260753,1
1526,4,0.0993243347,-0.4376600656,1.1899809681,-0.6292990390,1
1527,4,-0.3672824572,-0.4485565309,1.1531080995,-0.6026266378,1
1528,4,0.4809606151,-0.4521896314,1.1531080995,-0.5784872065,1
1529,4,0.3139866797,-0.4449234304,1.1531080995,-0.5182878174,1
1530,4,0.4337022182,-0.4485565309,1.1285261872,-0.5686974882,1
1531,4,1.4075090020,-0.4485565309,1.1531080995,-0.5803731503,1
1532,4,1.7317815868,-0.4485565309,1.1531080995,-0.5996477223,1
1533,4,-1.2614078858,-0.4449234304,1.1531080995,-0.5518034539,1
1534,4,-0.8318251882,-0.4558227319,1.1039442748,-0.6024012326,1
1535,4,0.4344332399,-0.4558227319,1.1039442748,-0.5933655675,1
1536,4,0.4772195045,-0.4558227319,1.1531080995,-0.6459417223,1
1537,4,2.3873359637,-0.4521896314,1.1531080995,-0.6187958081,1
1538,4,0.0078606312,-0.4594558324,1.1531080995,-0.6337990338,1
1539,4,0.2183088517,-0.4485565309,1.1531080995,-0.6493179345,1
1540,4,0.6096634193,-0.4449234304,1.1285261872,-0.6641995388,1
1541,4,0.7980089864,-0.4521896314,1.1285261872,-0.7006194962,1
1542,4,-0.8737944287,-0.4558227319,1.1039442748,-0.6728119611,1
1543,4,-0.0356136538,-0.4594558324,1.1039442748,-0.6793843859,1
1544,4,0.4028559789,-0.4594558324,1.1531080995,-0.7838734529,1
1545,4,0.3036233734,-0.4521896314,1.1285261872,-0.7834388589,1
1546,4,-0.1171870649,-0.4521896314,1.1285261872,-0.7944626298,1
1547,4,-1.2292429350,-0.4485565309,1.1285261872,-0.7801826464,1
1548,4,0.4501717051,-0.4521896314,1.1285261872,-0.7938091170,1
1549,4,0.8910637369,-0.4594558324,1.1285261872,-0.7352070233,1
1550,4,0.2475067147,-0.4594558324,1.1285261872,-0.7588875362,1
1551,4,-0.1634994338,-0.4594558324,1.1039442748,-0.7638140169,1
1552,4,-1.3877026188,-0.4594558324,1.1039442748,-0.7188919073,1
1553,4,0.5946989770,-0.4558227319,1.1039442748,-0.7380497227,1
1554,4,0.0317263367,-0.4521896314,1.1039442748,-0.7736734649,1
1555,4,-1.2025248177,-0.4594558324,1.1039442748,-0.7758529218,1
1556,4,0.1467547367,-0.4667220335,1.1039442748,-0.7948064131,1
1557,4,0.7381512171,-0.4667220335,1.0793623625,-0.8262042143,1
1558,4,0.0628162556,-0.4594558324,1.0793623625,-0.8557306662,1
1559,4,0.8557596934,-0.4630889329,1.1039442748,-0.9100970892,1
1560,4,-1.0248148926,-0.4558227319,1.1039442748,-0.8761192911,1
1561,4,0.4471616161,-0.4594558324,1.1039442748,-0.8628884957,1
1562,4,0.1609021548,-0.4558227319,1.0793623625,-0.8485339179,1
1563,4,-0.7786326159,-0.4558227319,1.0793623625,-0.7965350598,1
1564,4,-0.1014916010,-0.4558227319,1.0793623625,-0.7962431682,1
1565,4,-1.1310280320,-0.4521896314,1.1039442748,-0.8151220651,1
1566,4,0.2481947350,-0.4667220335,1.0793623625,-0.8075101821,1
1567,4,0.7004391024,-0.4667220335,1.0793623625,-0.8335728543,1
1568,4,-0.2065437061,-0.4703522978,1.0793623625,-0.8619641725,1
1569,4,-0.5260861511,-0.4630889329,1.0793623625,-0.8675555173,1
1570,4,0.5557684987,-0.4630889329,1.1039442748,-0.8093442340,1
1571,4,-0.8770195240,-0.4594558324,1.1039442748,-0.7888161499,1
1572,4,0.3412924868,-0.4630889329,1.0793623625,-0.8260404307,1
1573,4,-0.6247597401,-0.4594558324,1.1285261872,-0.7995901913,1
1574,4,-0.2408587204,-0.4739853983,1.1285261872,-0.7845058846,1
1575,4,-0.8173767611,-0.4739853983,1.0793623625,-0.8400820359,1
1576,4,-1.2586558044,-0.4776184988,1.0793623625,-0.9028095301,1
1577,4,0.3902279332,-0.4667220335,1.0793623625,-0.9689813447,1
1578,4,-0.9286640505,-0.4630889329,1.0793623625,-0.9632181082,1
1579,4,0.5333504912,-0.4703522978,1.0793623625,-1.0200104742,1
1580,4,0.2664702752,-0.4667220335,1.0793623625,-1.0305072187,1
1581,4,-0.4170349278,-0.4703522978,1.0793623625,-1.0119526458,1
1582,4,0.5448605039,-0.4667220335,1.0793623625,-0.9647894577,1
1583,4,0.3486457041,-0.4776184988,1.0547804501,-0.9857683521,1
1584,4,0.8081572864,-0.4739853983,1.0547804501,-0.9623683794,1
1585,4,-0.4129498071,-0.4739853983,1.0547804501,-0.9313273346,1
1586,4,0.3389274169,-0.4739853983,1.0547804501,-0.8821890137,1
1587,4,-0.4531559955,-0.4739853983,1.0793623625,-0.8332939357,1
1588,4,-1.3234157186,-0.4703522978,1.0547804501,-0.8663198431,1
1589,4,-0.9361892730,-0.4667220335,1.0547804501,-0.8495604032,1
1590,4,-0.5607881769,-0.4739853983,1.0547804501,-0.8295382644,1
1591,4,0.2047204500,-0.4739853983,1.0547804501,-0.8134420670,1
1592,4,0.4647921372,-0.4703522978,1.0547804501,-0.8391431181,1
1593,4,0.4483226504,-0.4739853983,1.0547804501,-0.8403496031,1
1594,4,-0.0585333312,-0.4776184988,1.0547804501,-0.8529803992,1
1595,4,1.4812561818,-0.4703522978,1.0547804501,-0.7991945161,1
1596,4,-1.2488945159,-0.4703522978,1.0793623625,-0.7694864427,1
1597,4,-1.3130667403,-0.4812515993,1.0301985378,-0.7951469533,1
1598,4,-1.5382930699,-0.4812515993,1.0301985378,-0.8213101659,1
1599,4,-0.8857917833,-0.4994142657,0.9933256693,-0.7596691569,1
1600,4,0.9290768605,-0.4957811652,0.9933256693,-0.7290075711,1
1601,4,0.3299401513,-0.4957811652,1.0301985378,-0.8146193629,1
1602,4,-0.0928053442,-0.4885178003,0.9933256693,-0.7553005134,1
1603,4,1.2263016459,-0.4776184988,0.9933256693,-0.7756842733,1
1604,4,-0.0990835298,-0.4739853983,0.9933256693,-0.7903080400,1
1605,4,0.2614821278,-0.4739853983,0.9933256693,-0.7484118728,1
1606,4,-0.4314833549,-0.4776184988,0.9933256693,-0.7482497108,1
1607,4,-0.6962565086,-0.4739853983,0.9933256693,-0.7496637632,1
1608,4,-0.0344096182,-0.4848846998,0.9933256693,-0.7031751689,1
1609,4,-0.3250552091,-0.4812515993,0.9933256693,-0.6383752446,1
1610,4,-0.0505780961,-0.4812515993,0.9933256693,-0.6713557466,1
1611,4,-1.1055139503,-0.4776184988,0.9933256693,-0.6281444458,1
1612,4,0.1145467847,-0.4776184988,1.0301985378,-0.5820790942,1
1613,4,-0.2682505301,-0.4739853983,1.0301985378,-0.6145358130,1
1614,4,0.5877327711,-0.4812515993,1.0301985378,-0.6383752446,1
1615,4,0.4509457279,-0.4703522978,1.0301985378,-0.6809362760,1
1616,4,-1.2084733211,-0.4667220335,1.0547804501,-0.6657481856,1
1617,4,-0.4415026510,-0.4594558324,1.0547804501,-0.7105778629,1
1618,4,0.5421944251,-0.4594558324,1.0547804501,-0.7817523743,1
1619,4,-1.3576447303,-0.4558227319,1.0301985378,-0.7769134611,1
1620,4,-2.1331726534,-0.4630889329,1.0301985378,-0.7635610443,1
1621,4,0.7595228488,-0.4630889329,1.0547804501,-0.7752658954,1
1622,4,-2.3570802716,-0.4630889329,1.0547804501,-0.7396778289,1
1623,4,0.2191258758,-0.4558227319,1.0547804501,-0.7755626518,1
1624,4,-1.2970559394,-0.4630889329,1.0547804501,-0.7394702616,1
1625,4,0.3704473486,-0.4485565309,1.0547804501,-0.7885193935,1
1626,4,-1.4445502991,-0.4521896314,1.0547804501,-0.7760588675,1
1627,4,-0.3529200327,-0.4449234304,1.0547804501,-0.7895880409,1
1628,4,1.2576495725,-0.4485565309,1.0547804501,-0.7756388680,1
1629,4,0.3387984131,-0.4521896314,1.0547804501,-0.7622767214,1
1630,4,-1.4173304945,-0.4558227319,1.0793623625,-0.7946053323,1
1631,4,-0.8280840776,-0.4521896314,1.0793623625,-0.8044842397,1
1632,4,0.1325213160,-0.4558227319,1.0547804501,-0.7938723602,1
1633,4,0.3715223803,-0.4558227319,1.0547804501,-0.8334788004,1
1634,4,0.7546637052,-0.4485565309,1.1039442748,-0.8479695942,1
1635,4,0.3762095189,-0.4412903299,1.0547804501,-0.8160982801,1
1636,4,-0.3003008050,-0.4376600656,1.0547804501,-0.8015880268,1
1637,4,0.3439585656,-0.4412903299,1.0793623625,-0.7605059127,1
1638,4,0.7430533620,-0.4412903299,1.0793623625,-0.7907458773,1
1639,4,-0.0511371126,-0.4485565309,1.0793623625,-0.7719983317,1
1640,4,-0.6889749658,-0.4376600656,1.0793623625,-0.7168729907,1
1641,4,-1.1075780113,-0.4485565309,1.0793623625,-0.7016962517,1
1642,4,-1.5149003785,-0.4412903299,1.0793623625,-0.7012470630,1
1643,4,0.4258329856,-0.4376600656,1.0793623625,-0.7341481057,1
1644,4,-0.1673695482,-0.4303938646,1.0793623625,-0.7133346165,1
1645,4,-0.9844797003,-0.4303938646,1.0793623625,-0.6793243860,1
1646,4,0.2135930399,-0.4231276635,1.0793623625,-0.7125546174,1
1647,4,1.1643368143,-0.4267607641,1.0793623625,-0.7064913812,1
1648,4,0.1920350751,-0.4231276635,1.0547804501,-0.7122140772,1
1649,4,-0.7983701993,-0.4194945630,1.0547804501,-0.6836703268,1
1650,4,-0.1543401631,-0.4231276635,1.0547804501,-0.7027211154,1
1651,4,0.3306138436,-0.4231276635,1.0793623625,-0.7106865115,1
1652,4,0.5306270831,-0.4231276635,1.0793623625,-0.6646389977,1
1653,4,-0.2601232898,-0.4231276635,1.0793623625,-0.6432092930,1
1654,4,-0.6361264037,-0.4194945630,1.0793623625,-0.6184293220,1
1655,4,-0.1859747705,-0.4013318967,1.0793623625,-0.6372401108,1
1656,4,0.5395283463,-0.3831692303,1.0547804501,-0.6000288030,1
1657,4,0.0558500497,-0.3650037278,1.0547804501,-0.5954071867,1
1658,4,-0.8493697068,-0.3613706273,1.0547804501,-0.5734034287,1
1659,4,-0.3618642971,-0.3541072624,1.0793623625,-0.6308963345,1
1660,4,-0.9788035326,-0.3577375268,1.0793623625,-0.6173006747,1
1661,4,0.1939271310,-0.3650037278,1.0547804501,-0.6951708539,1
1662,4,-0.4813218280,-0.3686368283,1.0793623625,-0.6835454621,1
1663,4,-0.4303223206,-0.3613706273,1.0793623625,-0.6658844017,1
1664,4,0.4071274328,-0.3613706273,1.0793623625,-0.6843968125,1
1665,4,0.0882730081,-0.3541072624,1.0793623625,-0.6739227706,1
1666,4,-0.4767206920,-0.3504741619,1.0793623625,-0.6657806180,1
1667,4,-1.3510225346,-0.3504741619,1.0793623625,-0.6338574121,1
1668,4,0.2987212285,-0.3504741619,1.0793623625,-0.6494865830,1
1669,4,0.3143880192,-0.3541072624,1.0301985378,-0.6358325449,1
1670,4,-0.4246031515,-0.3577375268,1.0547804501,-0.5957201594,1
1671,4,0.2477647223,-0.3577375268,1.0547804501,-0.5965439422,1
1672,4,-0.2245182374,-0.3577375268,1.0547804501,-0.5688823529,1
1673,4,-0.2077907430,-0.3541072624,1.0547804501,-0.5786266658,1
1674,4,0.4537121373,-0.3541072624,1.0547804501,-0.5801266641,1
1675,4,-0.0659725511,-0.3395748604,1.0301985378,-0.5677504623,1
1676,4,0.5527297365,-0.3395748604,1.0301985378,-0.5785082876,1
1677,4,-0.1482769839,-0.3323086594,1.0547804501,-0.5800293669,1
1678,4,0.0410146112,-0.3323086594,1.0547804501,-0.6020915033,1
1679,4,-0.5196359605,-0.3395748604,1.0547804501,-0.5503358881,1
1680,4,-0.0864411561,-0.2996164271,1.0547804501,-0.5741688332,1
1681,4,-0.4583591493,-0.3214121940,1.0547804501,-0.5852850364,1
1682,4,0.2321552609,-0.3177790935,1.0547804501,-0.6267352582,1
1683,4,0.0352524409,-0.3177790935,1.0547804501,-0.6322455221,1
1684,4,0.6788954657,-0.3105128925,1.0301985378,-0.6671330489,1
1685,4,0.6886567542,-0.3105128925,1.0301985378,-0.6751341206,1
1686,4,0.4592019720,-0.3177790935,1.0301985378,-0.7141794804,1
1687,4,0.1493348129,-0.3141459930,1.0301985378,-0.7121978610,1
1688,4,0.4100945205,-0.3177790935,0.9933256693,-0.7603032102,1
1689,4,0.6241978489,-0.3141459930,0.9933256693,-0.7700621177,1
1690,4,-0.0512231152,-0.3141459930,0.9933256693,-0.7503675462,1
1691,4,-0.0034487030,-0.3250452945,0.9933256693,-0.8113436911,1
1692,4,0.3427975313,-0.3286783950,0.9933256693,-0.8814155011,1
1693,4,0.1103756614,-0.3286783950,0.9810347131,-0.8395696041,1
1694,4,0.6449674628,-0.3286783950,0.9810347131,-0.8820041490,1
1695,4,-1.0560338153,-0.3250452945,1.0301985378,-0.9124711405,1
1696,4,0.5176406993,-0.3141459930,1.0301985378,-0.9072624979,1
1697,4,-0.7044124221,-0.3068797920,0.9933256693,-0.9539392001,1
1698,4,0.5422374263,-0.3141459930,0.9933256693,-0.9290278779,1
1699,4,0.4667271944,-0.3214121940,1.0547804501,-0.8954198090,1
1700,4,0.0658263446,-0.3323086594,0.9933256693,-0.8281712390,1
1701,4,-0.9905572076,-0.3250452945,0.9933256693,-0.8374031201,1
1702,4,-0.0495460656,-0.3323086594,0.9933256693,-0.7759404892,1
1703,4,1.5384908736,-0.3286783950,0.9933256693,-0.7536983531,1
1704,4,-0.1086728133,-0.3323086594,0.9933256693,-0.7333664850,1
1705,4,-0.9556258475,-0.3141459930,0.9810347131,-0.6518346884,1
1706,4,0.3974951480,-0.3105128925,0.9810347131,-0.6609546777,1
1707,4,0.3417224995,-0.3068797920,0.9810347131,-0.6565665747,1
1708,4,0.2674306312,-0.3105128925,0.9933256693,-0.6200379688,1
1709,4,0.5407753831,-0.3141459930,0.9933256693,-0.6227849926,1
1710,4,0.3829177172,-0.3177790935,0.9933256693,-0.6361179500,1
1711,4,-0.2991541159,-0.3177790935,0.9810347131,-0.6579271137,1
1712,4,-0.4343214388,-0.3250452945,0.9810347131,-0.6546903607,1
1713,4,0.4232959107,-0.3141459930,0.9810347131,-0.6636806205,1
1714,4,-0.0038787158,-0.3286783950,0.9810347131,-0.6473865854,1
1715,4,0.2160297843,-0.3323086594,0.9810347131,-0.6970827436,1
1716,4,-0.6320986123,-0.3323086594,0.9810347131,-0.6695687217,1
1717,4,0.5310570959,-0.3141459930,0.9933256693,-0.7672664453,1
1718,4,-0.4487268646,-0.3068797920,0.9564528008,-0.7730799520,1
1719,4,-1.4759412269,-0.3068797920,0.9564528008,-0.8073545066,1
1720,4,0.4745104245,-0.3105128925,0.9810347131,-0.8086842348,1
1721,4,-0.6937911082,-0.3141459930,0.9810347131,-0.8227890831,1
1722,4,0.3785745888,-0.3141459930,0.9810347131,-0.8556674231,1
1723,4,0.3665055596,-0.3032466915,0.9564528008,-0.8507522937,1
1724,4,-0.2891921490,-0.3105128925,0.9564528008,-0.8373285256,1
1725,4,0.5894528219,-0.3032466915,0.9564528008,-0.8929727849,1
1726,4,0.1188469118,-0.3068797920,0.9564528008,-0.8650971418,1
1727,4,-1.2852735912,-0.3068797920,0.9564528008,-0.8779695592,1
1728,4,0.5192317463,-0.3068797920,0.9564528008,-0.9047749332,1
1729,4,-0.6793856824,-0.3068797920,0.9564528008,-0.8665371401,1
1730,4,0.2775646031,-0.3105128925,0.9318708884,-0.8183150343,1
1731,4,-0.9345982259,-0.3068797920,0.9318708884,-0.7770610285,1
1732,4,0.5620610123,-0.3177790935,0.9564528008,-0.7981972200,1
1733,4,-0.6695383913,-0.3177790935,0.9564528008,-0.7682977955,1
1734,4,-0.8615820677,-0.2959833266,0.9318708884,-0.7893350682,1
1735,4,0.4927859646,-0.3105128925,0.9318708884,-0.7646005025,1
1736,4,-0.6553192986,-0.3068797920,0.9564528008,-0.7636842874,1
1737,4,0.3612880778,-0.3068797920,0.9564528008,-0.7764626508,1
1738,4,0.1263291329,-0.3068797920,0.9564528008,-0.7359772927,1
1739,4,0.4873678045,-0.3068797920,0.9318708884,-0.7681664443,1
1740,4,0.5507946793,-0.3141459930,0.9318708884,-0.7283329773,1
1741,4,0.4764884829,-0.2596551577,0.9318708884,-0.7564745660,1
1742,4,-0.1036846658,-0.2560220572,0.9318708884,-0.7223913626,1
1743,4,-0.8774925380,-0.2487558562,0.9318708884,-0.7765502183,1
1744,4,0.2933030683,-0.2560220572,0.9072889761,-0.7525178139,1
1745,4,-0.4821101789,-0.2560220572,0.9072889761,-0.7379053986,1
1746,4,0.4903778935,-0.2487558562,0.9072889761,-0.7785739997,1
1747,4,0.0774796890,-0.2414924913,0.9318708884,-0.7459729567,1
1748,4,-0.5380691777,-0.2414924913,0.9072889761,-0.7828388596,1
1749,4,0.4219198700,-0.2414924913,0.9072889761,-0.7449432282,1
1750,4,-0.3287533184,-0.2451255919,0.9318708884,-0.7757037328,1
1751,4,-0.1774318456,-0.2451255919,0.9318708884,-0.7483470080,1
1752,4,-0.1738770682,-0.2378593908,0.9318708884,-0.7685199574,1
1753,4,1.4022628469,-0.2342262903,0.9318708884,-0.7673296885,1
1754,4,-0.4752156475,-0.2233269888,0.8827070637,-0.7698950909,1
1755,4,0.0648659886,-0.1833685556,0.8827070637,-0.8582376903,1
1756,4,-0.5394595464,-0.1506734872,0.9072889761,-0.9407894857,1
1757,4,0.8141344631,-0.1543065877,0.9072889761,-0.9976775274,1
1758,4,-0.8540138440,-0.1615727887,0.9072889761,-1.0182753411,1
1759,4,0.3260270356,-0.1615727887,0.9318708884,-0.9386781369,1
1760,4,0.1117947033,-0.1652030530,0.9318708884,-0.9321154418,1
1761,4,0.1836928285,-0.1434072862,0.9072889761,-0.7897988514,1
1762,4,-0.0665745689,-0.1397741857,0.9318708884,-0.7356594552,1
1763,4,-0.9378663225,-0.1325108208,0.9318708884,-0.7150032632,1
1764,4,0.1773716416,-0.1179784188,0.9318708884,-0.6443557782,1
1765,4,0.4826376647,-0.1397741857,0.9318708884,-0.5266456455,1
1766,4,0.3665629061,-0.1652030530,0.9318708884,-0.4520868137,1
1767,4,0.4783375376,-0.1688361536,0.9072889761,-0.4443192552,1
1768,4,-0.3225181341,-0.1688361536,0.9072889761,-0.4215257684,1
1769,4,-0.5131857698,-0.1688361536,0.9072889761,-0.4142884795,1
1770,4,0.6090184002,-0.1870016561,0.9072889761,-0.4238187387,1
1771,4,-0.4918141381,-0.1906347566,0.9072889761,-0.4316771079,1
1772,4,0.0124044379,-0.1870016561,0.9072889761,-0.4527516778,1
1773,4,-0.3028665532,-0.1942650209,0.8581251514,-0.4371743987,1
1774,4,-0.3614342844,-0.2051643225,0.8581251514,-0.4732554376,1
1775,4,-0.0375057097,-0.1978981214,0.9318708884,-0.5243137563,1
1776,4,0.2481517338,-0.1942650209,0.9318708884,-0.5296067231,1
1777,4,-0.4951252360,-0.1942650209,0.9318708884,-0.5159818742,1
1778,4,-0.1945463515,-0.2051643225,0.9072889761,-0.5613029023,1
1779,4,-0.7263000691,-0.2160636240,0.8827070637,-0.6421276727,1
1780,4,-0.3447067899,-0.2269600893,0.8581251514,-0.6524509039,1
1781,4,-0.5338693812,-0.2269600893,0.8581251514,-0.7057470578,1
1782,4,0.3308001767,-0.2305931898,0.8581251514,-0.7113400242,1
1783,4,-0.4786987505,-0.2305931898,0.8581251514,-0.7474356577,1
1784,4,-0.4988663466,-0.2233269888,0.8581251514,-0.7755285978,1
1785,4,0.4662111791,-0.2269600893,0.8581251514,-0.7707869818,1
1786,4,0.8293712410,-0.2196938883,0.9072889761,-0.8320550182,1
1787,4,-0.4342354362,-0.2196938883,0.8827070637,-0.8248679996,1
1788,4,-0.9593239568,-0.2196938883,0.8827070637,-0.8603230933,1
1789,4,-0.1239812657,-0.2269600893,0.8827070637,-0.8665987617,1
1790,4,-0.2794308605,-0.2305931898,0.8827070637,-0.8787382069,1
1791,4,0.1640412476,-0.2342262903,0.8827070637,-0.8663036269,1
1792,4,-0.6458876922,-0.2342262903,0.8827070637,-0.8975830498,1
1793,4,0.5639530682,-0.2269600893,0.8827070637,-0.8469804062,1
1794,4,-0.9577615830,-0.2342262903,0.8827070637,-0.9030008813,1
1795,4,0.5876897698,-0.2342262903,0.8827070637,-0.8730398352,1
1796,4,0.4971720943,-0.2305931898,0.8827070637,-0.8310642086,1
1797,4,-0.7118946433,-0.2233269888,0.8827070637,-0.8375587956,1
1798,4,0.4294450924,-0.2233269888,0.8827070637,-0.8133934184,1
1799,4,-0.0015996484,-0.1797354551,0.8827070637,-0.8022966746,1
1800,4,-0.9550668309,-0.2233269888,0.8827070637,-0.8441458149,1
1801,4,0.3857988023,-0.2269600893,0.8581251514,-0.8338193405,1
1802,4,0.8290129028,-0.2269600893,0.8581251514,-0.7984728953,1
1803,4,-0.4307523333,-0.2233269888,0.8581251514,-0.8113404479,1
1804,4,0.0200729922,-0.2305931898,0.8581251514,-0.7465470101,1
1805,4,0.4036013285,-0.2342262903,0.8581251514,-0.7756291383,1
1806,4,0.1435296413,-0.2342262903,0.8581251514,-0.7424540419,1
1807,4,0.3942700527,-0.2414924913,0.8581251514,-0.7630032071,1
1808,4,0.3085685195,-0.2342262903,0.8581251514,-0.7702291446,1
1809,4,-0.8250309873,-0.2342262903,0.8581251514,-0.8018523508,1
1810,4,0.3457502910,-0.2305931898,0.8827070637,-0.8305209660,1
1811,4,0.4831106787,-0.2305931898,0.8827070637,-0.7917058762,1
1812,4,0.2636321913,-0.2233269888,0.8827070637,-0.8265009707,1
1813,4,-0.2838169902,-0.2378593908,0.8335432390,-0.8243328651,1
1814,4,1.0673116189,-0.2342262903,0.8335432390,-0.8927035960,1
1815,4,-0.0477400122,-0.2414924913,0.8581251514,-0.8733122673,1
1816,4,0.4750264397,-0.2414924913,0.8581251514,-0.8942214321,1
1817,4,-0.8506167436,-0.2305931898,0.8581251514,-0.9204527528,1
1818,4,0.5600399525,-0.2342262903,0.8581251514,-0.9201965368,1
1819,4,0.3258980318,-0.2342262903,0.8581251514,-0.8932695413,1
1820,4,0.5049553243,-0.2378593908,0.8581251514,-0.8957165655,1
1821,4,-0.3396756412,-0.2305931898,0.8335432390,-0.8401177115,1
1822,4,0.0514209188,-0.2269600893,0.8335432390,-0.8607349847,1
1823,4,-0.5680983929,-0.1906347566,0.7966703705,-0.8397431174,1
1824,4,0.2813917163,-0.1942650209,0.8335432390,-0.8391836586,1
1825,4,0.6128025121,-0.1833685556,0.8581251514,-0.8556658015,1
1826,4,0.5215538150,-0.2051643225,0.8581251514,-0.8582539065,1
1827,4,-0.0503630897,-0.2196938883,0.8335432390,-0.8102458545,1
1828,4,0.5436564683,-0.2269600893,0.8335432390,-0.8366798777,1
1829,4,0.3171257725,-0.2269600893,0.7966703705,-0.8205934100,1
1830,4,-0.5486188172,-0.2233269888,0.7966703705,-0.8108945024,1
1831,4,0.9858815395,-0.1978981214,0.7966703705,-0.8359031219,1
1832,4,0.5512246920,-0.1978981214,0.7966703705,-0.7850475056,1
1833,4,-0.6543589426,-0.2051643225,0.7966703705,-0.7395026940,1
1834,4,0.4962547396,-0.2015312219,0.7966703705,-0.7748313013,1
1835,4,0.6819055546,-0.2015312219,0.7966703705,-0.7700442799,1
1836,4,-0.9176127239,-0.1688361536,0.8335432390,-0.7321470269,1
1837,4,0.5559118305,-0.1288777203,0.8335432390,-0.7632269906,1
1838,4,0.5832893121,-0.0889164509,0.8335432390,-0.7737545458,1
1839,4,-0.5191629465,-0.0816502499,0.7966703705,-0.7326302696,1
1840,4,-0.3441907747,-0.1179784188,0.7966703705,-0.7480016030,1
1841,4,0.3656312062,-0.1216115193,0.7720884581,-0.7553329458,1
1842,4,0.5966340342,-0.1361439213,0.7720884581,-0.7780258922,1
1843,4,0.5606849716,-0.1470403867,0.7720884581,-0.7822485900,1
1844,4,-0.0074048200,-0.1579396882,0.7720884581,-0.7713853594,1
1845,4,-0.3368805586,-0.1615727887,0.7966703705,-0.7509140320,1
1846,4,-0.2406867153,-0.1688361536,0.7966703705,-0.7930777665,1
1847,4,0.2247160410,-0.1688361536,0.7966703705,-0.7560724044,1
1848,4,-0.6577990443,-0.1724692541,0.7966703705,-0.7712215758,1
1849,4,0.6002461409,-0.1797354551,0.7966703705,-0.6832341111,1
1850,4,-0.1783778736,-0.1906347566,0.7966703705,-0.7013946304,1
1851,4,-0.0984241827,-0.1906347566,0.7966703705,-0.6468465861,1
1852,4,0.4874968083,-0.1870016561,0.7720884581,-0.6818833019,1
1853,4,0.5613299907,-0.1870016561,0.7966703705,-0.6580454919,1
1854,4,-0.7441885978,-0.1870016561,0.7966703705,-0.6694422353,1
1855,4,0.6086313888,-0.1797354551,0.7966703705,-0.6441125352,1
1856,4,-0.3634553441,-0.1942650209,0.7966703705,-0.5706726211,1
1857,4,-0.1527061148,-0.1797354551,0.7966703705,-0.6381498395,1
1858,4,0.1700184243,-0.1978981214,0.7966703705,-0.6249660711,1
1859,4,-1.1972069881,-0.1906347566,0.7966703705,-0.6541146857,1
1860,4,0.9266687893,-0.1833685556,0.7966703705,-0.6664244010,1
1861,4,-0.1456109051,-0.1870016561,0.7966703705,-0.7065546244,1
1862,4,-0.5783326954,-0.1906347566,0.7966703705,-0.7757783273,1
1863,4,0.7059432651,-0.1870016561,0.7966703705,-0.7994507320,1
1864,4,-0.8436935390,-0.1906347566,0.7966703705,-0.7869156115,1
1865,4,-0.2011685472,-0.2015312219,0.7966703705,-0.8671306529,1
1866,4,0.2541719117,-0.1978981214,0.7720884581,-0.9015089911,1
1867,4,-0.8199998386,-0.1906347566,0.7720884581,-0.9409500261,1
1868,4,0.4448825487,-0.1906347566,0.7720884581,-0.9784483606,1
1869,4,0.2700823820,-0.1942650209,0.7720884581,-0.9651462140,1
1870,4,-0.4893630657,-0.1942650209,0.7720884581,-0.9684024264,1
1871,4,0.4844867193,-0.1870016561,0.7720884581,-1.0409455849,1
1872,4,-0.3920081881,-0.1906347566,0.7720884581,-1.0149218315,1
1873,4,-0.6799446989,-0.1906347566,0.7597975020,-1.0552125952,1
1874,4,0.3307141741,-0.1978981214,0.7597975020,-1.0768060835,1
1875,4,0.2193408822,-0.1978981214,0.7597975020,-1.0498028718,1
1876,4,-1.1122794778,-0.2015312219,0.7597975020,-0.9976159058,1
1877,4,0.4819209711,-0.2015312219,0.7597975020,-0.9937369914,1
1878,4,0.4986771388,-0.2124305235,0.7720884581,-0.9640354045,1
1879,4,0.1191479207,-0.2087974230,0.7720884581,-0.8739317261,1
1880,4,-0.3571341573,-0.1942650209,0.7720884581,-0.8109123403,1
1881,4,0.2427765749,-0.1906347566,0.7720884581,-0.7778280546,1
1882,4,-0.7275041047,-0.1906347566,0.7720884581,-0.7436297162,1
1883,4,0.5969780443,-0.1906347566,0.7720884581,-0.7548221355,1
1884,4,-1.0189667197,-0.2051643225,0.7597975020,-0.7291956790,1
1885,4,-1.0296023617,-0.2051643225,0.7720884581,-0.7124281310,1
1886,4,-1.0275669739,-0.2015312219,0.7720884581,-0.7014497655,1
1887,4,0.5656301178,-0.2051643225,0.7720884581,-0.7290870305,1
1888,4,0.6122864968,-0.2160636240,0.7597975020,-0.7483080891,1
1889,4,-1.0064533498,-0.2160636240,0.7597975020,-0.7084957032,1
1890,4,0.5159206485,-0.2124305235,0.7352155896,-0.7579502400,1
1891,4,0.9074042199,-0.2087974230,0.7597975020,-0.7749026526,1
1892,4,-0.0965894561,-0.2087974230,0.7597975020,-0.7552324053,1
