ID,empatica_bvp,empatica_eda,empatica_temp,samsung_bvp,time,CL
0.0,1.7125,,,2217901.0,1767084708.8733695,0
0.0,-25.1325,,,2220090.0,1767084708.9342391,0
0.0,-27.775000000000002,,,2223185.0,1767084708.9951086,0
0.0,26.1575,0.289407,34.07,2224994.0,1767084709.0559783,0
0.0,58.52,,,2227155.0,1767084709.1168478,0
0.0,65.8175,,,2229533.0,1767084709.1777174,0
0.0,63.785000000000004,,,2229983.0,1767084709.238587,0
0.0,41.690000000000005,0.340629,34.07,2229286.0,1767084709.2994566,0
0.0,21.470000000000002,,,2229850.5,1767084709.360326,0
0.0,4.953333333333333,,,2230739.0,1767084709.4211957,0
0.0,-16.3525,,,2231593.5,1767084709.4820652,0
0.0,-35.182500000000005,0.311176,34.07,2232920.0,1767084709.542935,0
0.0,-41.4275,,,2234112.5,1767084709.6038043,0
0.0,-1.4074999999999998,,,2235285.0,1767084709.6646738,0
0.0,50.19499999999999,,,2237063.0,1767084709.7255435,0
0.0,83.2975,0.304773,34.07,2239033.0,1767084709.786413,0
0.0,94.62,,,2240519.0,1767084709.8472826,0
0.0,105.7025,,,2242874.0,1767084709.908152,0
0.0,120.2475,,,2244444.5,1767084709.9690218,0
0.0,113.71999999999998,0.303493,34.07,2245179.0,1767084710.0298913,0
0.0,103.10000000000001,,,2244330.0,1767084710.090761,0
0.0,47.864999999999995,,,2244121.0,1767084710.1516304,0
0.0,-117.50750000000001,,,2244651.0,1767084710.2125,0
0.0,-221.35000000000002,0.29837,34.09,2245566.0,1767084710.2733696,0
0.0,-215.57750000000001,,,2246603.0,1767084710.3342392,0
0.0,-169.6525,,,2247687.0,1767084710.3951087,0
0.0,-92.43,,,2248215.0,1767084710.4559782,0
0.0,-23.875,0.295809,34.09,2249523.5,1767084710.5168478,0
0.0,7.669999999999999,,,2251098.0,1767084710.5777173,0
0.0,20.017500000000002,,,2252617.5,1767084710.638587,0
0.0,31.115000000000002,,,2253949.0,1767084710.6994565,0
0.0,35.964999999999996,0.294529,34.09,2255454.0,1767084710.7603261,0
0.0,35.69,,,2254309.0,1767084710.8211956,0
0.0,24.595,,,2253607.0,1767084710.8820653,0
0.0,10.9175,,,2253325.0,1767084710.9429348,0
0.0,-5.8075,0.294529,34.09,2254328.0,1767084711.0038044,0
0.0,-26.9225,,,2254543.0,1767084711.064674,0
0.0,-52.405,,,2254881.0,1767084711.1255436,0
0.0,-48.85999999999999,,,2255780.5,1767084711.186413,0
0.0,-9.102500000000001,,,2256873.0,1767084711.2472825,0
0.0,22.877499999999998,0.295809,34.07,2257834.0,1767084711.3081522,0
0.0,26.395,,,2258663.0,1767084711.3690217,0
0.0,23.555,,,2259631.5,1767084711.4298913,0
0.0,30.885,,,2259273.0,1767084711.4907608,0
0.0,32.737500000000004,0.295809,34.07,2256529.5,1767084711.5516305,0
0.0,24.3825,,,2254523.0,1767084711.6125,0
0.0,4.945,,,2254079.5,1767084711.6733696,0
0.0,-9.456666666666669,,,2253502.5,1767084711.734239,0
0.0,-21.5925,0.295809,34.07,2253189.0,1767084711.7951088,0
0.0,-44.22,,,2252456.0,1767084711.8559783,0
0.0,-44.1375,,,2252826.0,1767084711.916848,0
0.0,-5.3575,,,2252828.5,1767084711.9777174,0
0.0,20.520000000000003,0.295809,34.07,2253065.0,1767084712.0385869,0
0.0,16.85,,,2253261.0,1767084712.0994565,0
0.0,9.692499999999999,,,2253653.0,1767084712.160326,0
0.0,12.247500000000002,,,2251615.5,1767084712.2211957,0
0.0,11.5075,0.295809,34.03,2246100.0,1767084712.2820652,0
0.0,6.696666666666666,,,2242235.5,1767084712.3429348,0
0.0,-7.0,,,2238891.0,1767084712.4038043,0
0.0,-22.175,,,2236322.0,1767084712.464674,0
0.0,-40.045,0.294529,34.03,2233578.0,1767084712.5255435,0
0.0,-56.655,,,2231172.0,1767084712.5864131,0
0.0,-30.372500000000002,,,2229569.0,1767084712.6472826,0
0.0,12.825,,,2228314.0,1767084712.708152,0
0.0,29.15,0.290687,34.03,2227391.0,1767084712.7690217,0
0.0,23.8675,,,2227028.0,1767084712.8298912,0
0.0,21.06,,,2227414.0,1767084712.890761,0
0.0,21.766666666666666,,,2225954.0,1767084712.9516304,0
0.0,17.515,0.291968,34.03,2221365.0,1767084713.0125,0
0.0,10.594999999999999,,,2216220.0,1767084713.0733695,0
0.0,-5.0075,,,2213109.0,1767084713.1342392,0
0.0,-21.3525,,,2211421.5,1767084713.1951087,0
0.0,-39.2375,0.289407,34.07,2209561.0,1767084713.2559783,0
0.0,-60.0225,,,2207536.0,1767084713.3168478,0
0.0,-38.480000000000004,,,2205745.5,1767084713.3777175,0
0.0,10.195,,,2205111.0,1767084713.438587,0
0.0,31.47666666666667,,,2204900.5,1767084713.4994564,0
0.0,30.5025,0.288126,34.07,2204438.0,1767084713.560326,0
0.0,25.197499999999998,,,2204778.0,1767084713.6211956,0
0.0,25.9825,,,2203587.0,1767084713.6820652,0
0.0,25.195,,,2198762.5,1767084713.7429347,0
0.0,18.740000000000002,0.293248,34.07,2193198.0,1767084713.8038044,0
0.0,2.9250000000000007,,,2190238.0,1767084713.8646739,0
0.0,-14.16,,,2187827.0,1767084713.9255435,0
0.0,-31.822499999999998,,,2185484.5,1767084713.986413,0
0.0,-52.7775,0.291968,34.07,2181342.5,1767084714.0472827,0
0.0,-40.92666666666667,,,2179296.0,1767084714.1081522,0
0.0,2.4899999999999993,,,2177897.5,1767084714.1690218,0
0.0,32.9675,,,2176495.0,1767084714.2298913,0
0.0,33.35,0.291968,34.03,2175689.0,1767084714.2907608,0
0.0,26.982499999999998,,,2175410.0,1767084714.3516304,0
0.0,28.35,,,2171122.5,1767084714.4125,0
0.0,28.9275,,,2164912.0,1767084714.4733696,0
0.0,21.055,0.291968,34.03,2160747.0,1767084714.534239,0
0.0,4.484999999999999,,,2158238.0,1767084714.5951087,0
0.0,-9.643333333333333,,,2156369.0,1767084714.6559782,0
0.0,-22.8975,,,2153736.0,1767084714.716848,0
0.0,-44.129999999999995,0.290687,34.03,2151990.5,1767084714.7777174,0
0.0,-47.18,,,2151011.0,1767084714.838587,0
0.0,-7.24,,,2150867.5,1767084714.8994565,0
0.0,26.6825,,,2150395.0,1767084714.9603262,0
0.0,28.465000000000003,0.288126,34.03,2150942.0,1767084715.0211957,0
0.0,21.07,,,2150410.0,1767084715.082065,0
0.0,22.517500000000002,,,2144353.5,1767084715.1429348,0
0.0,22.6175,,,2138327.0,1767084715.2038043,0
0.0,19.236666666666668,0.288126,34.03,2135139.0,1767084715.264674,0
0.0,7.987499999999999,,,2133282.0,1767084715.3255434,0
0.0,-5.4375,,,2130700.0,1767084715.386413,0
0.0,-21.314999999999998,,,2127897.0,1767084715.4472826,0
0.0,-41.125,0.288126,34.03,2126281.0,1767084715.5081522,0
0.0,-25.1425,,,2124999.0,1767084715.5690217,0
0.0,14.227500000000001,,,2124558.5,1767084715.6298914,0
0.0,28.5975,,,2124566.5,1767084715.6907609,0
0.0,24.552500000000002,0.289407,34.03,2124117.0,1767084715.7516305,0
0.0,23.886666666666667,,,2118385.5,1767084715.8125,0
0.0,26.38,,,2111675.0,1767084715.8733695,0
0.0,24.235,,,2107722.0,1767084715.9342391,0
0.0,17.552500000000002,,,2104818.0,1767084715.9951086,0
0.0,0.35749999999999993,0.290687,34.03,2102739.0,1767084716.0559783,0
0.0,-23.71,,,2100396.0,1767084716.1168478,0
0.0,-53.675000000000004,,,2098806.0,1767084716.1777174,0
0.0,-54.3025,,,2097878.0,1767084716.238587,0
0.0,-12.474999999999998,0.291968,34.0,2097169.5,1767084716.2994566,0
0.0,14.932500000000001,,,2097136.0,1767084716.360326,0
0.0,13.01,,,2097175.5,1767084716.4211957,0
0.0,2.2800000000000002,,,2096774.0,1767084716.4820652,0
0.0,5.120000000000001,0.290687,34.0,2090919.5,1767084716.542935,0
0.0,11.412500000000001,,,2084690.0,1767084716.6038043,0
0.0,7.745,,,2081031.5,1767084716.6646738,0
0.0,-5.6525,,,2078400.0,1767084716.7255435,0
0.0,-16.32,0.290687,34.0,2076123.0,1767084716.786413,0
0.0,-34.8225,,,2073622.0,1767084716.8472826,0
0.0,-46.605000000000004,,,2071635.0,1767084716.908152,0
0.0,-10.9125,,,2070181.0,1767084716.9690218,0
0.0,24.113333333333333,0.286845,34.0,2070196.5,1767084717.0298913,0
0.0,32.6425,,,2069598.0,1767084717.090761,0
0.0,24.2975,,,2070047.0,1767084717.1516304,0
0.0,21.5975,,,2070247.0,1767084717.2125,0
0.0,22.872500000000002,0.286845,34.0,2068360.0,1767084717.2733696,0
0.0,19.9425,,,2062120.5,1767084717.3342392,0
0.0,8.395,,,2057396.0,1767084717.3951087,0
0.0,-8.2075,,,2054736.0,1767084717.4559782,0
0.0,-21.2675,0.286845,34.0,2052811.0,1767084717.5168478,0
0.0,-39.79666666666666,,,2050561.0,1767084717.5777173,0
0.0,-44.209999999999994,,,2049000.0,1767084717.638587,0
0.0,-11.297500000000001,,,2047694.0,1767084717.6994565,0
0.0,20.4775,0.286845,34.0,2047375.0,1767084717.7603261,0
0.0,27.2575,,,2047555.0,1767084717.8211956,0
0.0,24.064999999999998,,,2047830.0,1767084717.8820653,0
0.0,25.0075,,,2048483.5,1767084717.9429348,0
0.0,26.235,0.288126,34.0,2049541.0,1767084718.0038044,0
0.0,19.209999999999997,,,2048830.5,1767084718.064674,0
0.0,6.984999999999999,,,2044229.0,1767084718.1255436,0
0.0,-4.91,,,2040251.0,1767084718.186413,0
0.0,-14.357499999999998,,,2038248.0,1767084718.2472825,0
0.0,-25.685000000000002,0.290687,34.0,2037106.5,1767084718.3081522,0
0.0,-45.46249999999999,,,2035925.0,1767084718.3690217,0
0.0,-41.845000000000006,,,2034450.0,1767084718.4298913,0
0.0,-1.2450000000000006,,,2033857.0,1767084718.4907608,0
0.0,24.1725,0.290687,34.0,2034462.5,1767084718.5516305,0
0.0,25.5875,,,2034715.0,1767084718.6125,0
0.0,21.675,,,2035631.0,1767084718.6733696,0
0.0,23.876666666666665,,,2037032.5,1767084718.734239,0
0.0,26.345000000000002,0.289407,34.0,2038402.0,1767084718.7951088,0
0.0,21.7125,,,2037992.5,1767084718.8559783,0
0.0,9.6375,,,2034160.0,1767084718.916848,0
0.0,-3.4175000000000004,,,2030929.5,1767084718.9777174,0
0.0,-15.4275,0.289407,34.0,2029226.0,1767084719.0385869,0
0.0,-25.4125,,,2029147.0,1767084719.0994565,0
0.0,-43.225,,,2028404.0,1767084719.160326,0
0.0,-38.800000000000004,,,2027423.5,1767084719.2211957,0
0.0,1.3525,0.290687,34.03,2027681.0,1767084719.2820652,0
0.0,23.63333333333333,,,2028321.5,1767084719.3429348,0
0.0,22.9375,,,2029281.0,1767084719.4038043,0
0.0,17.15,,,2030795.0,1767084719.464674,0
0.0,19.965000000000003,0.286845,34.03,2032246.0,1767084719.5255435,0
0.0,21.53,,,2033610.5,1767084719.5864131,0
0.0,15.905,,,2035175.0,1767084719.6472826,0
0.0,5.4125000000000005,,,2032586.5,1767084719.708152,0
0.0,-4.8149999999999995,0.286845,34.03,2028618.5,1767084719.7690217,0
0.0,-14.2075,,,2027923.0,1767084719.8298912,0
0.0,-24.92,,,2028156.5,1767084719.890761,0
0.0,-41.949999999999996,,,2027851.0,1767084719.9516304,0
0.0,-43.980000000000004,0.286845,34.03,2027771.0,1767084720.0125,0
0.0,-8.032500000000002,,,2028060.0,1767084720.0733695,0
0.0,20.395,,,2029330.5,1767084720.1342392,0
0.0,20.590000000000003,,,2030461.0,1767084720.1951087,0
0.0,14.5625,0.285565,33.99,2031886.5,1767084720.2559783,0
0.0,18.3875,,,2033331.0,1767084720.3168478,0
0.0,20.715,,,2034427.5,1767084720.3777175,0
0.0,16.0425,,,2032028.0,1767084720.438587,0
0.0,8.566666666666668,,,2028882.0,1767084720.4994564,0
0.0,0.7,0.288126,33.99,2027470.0,1767084720.560326,0
0.0,-12.854999999999999,,,2027816.0,1767084720.6211956,0
0.0,-23.915000000000003,,,2027728.0,1767084720.6820652,0
0.0,-40.1175,,,2027168.0,1767084720.7429347,0
0.0,-45.445,0.288126,33.99,2027690.5,1767084720.8038044,0
0.0,-11.705,,,2029033.0,1767084720.8646739,0
0.0,18.945,,,2029936.5,1767084720.9255435,0
0.0,21.575,,,2031226.0,1767084720.986413,0
0.0,14.3875,0.289407,33.99,2032946.5,1767084721.0472827,0
0.0,18.356666666666666,,,2032119.0,1767084721.1081522,0
0.0,20.6675,,,2027651.0,1767084721.1690218,0
0.0,14.5125,,,2024117.5,1767084721.2298913,0
0.0,2.7600000000000002,0.289407,34.0,2023734.0,1767084721.2907608,0
0.0,-9.395,,,2022718.5,1767084721.3516304,0
0.0,-19.545,,,2022124.0,1767084721.4125,0
0.0,-35.085,,,2020978.5,1767084721.4733696,0
0.0,-40.727500000000006,0.289407,34.0,2020739.0,1767084721.534239,0
0.0,-8.1525,,,2020786.5,1767084721.5951087,0
0.0,19.349999999999998,,,2021378.0,1767084721.6559782,0
0.0,23.3025,,,2022340.0,1767084721.716848,0
0.0,13.64,0.286845,34.0,2023348.0,1767084721.7777174,0
0.0,13.2,,,2022468.0,1767084721.838587,0
0.0,14.67,,,2018037.0,1767084721.8994565,0
0.0,9.682500000000001,,,2014185.5,1767084721.9603262,0
0.0,-2.35,0.288126,34.0,2012137.0,1767084722.0211957,0
0.0,-15.7975,,,2011027.5,1767084722.082065,0
0.0,-28.9975,,,2009582.0,1767084722.1429348,0
0.0,-50.2425,,,2008168.5,1767084722.2038043,0
0.0,-48.28,0.286845,33.99,2007717.0,1767084722.264674,0
0.0,-12.6825,,,2008145.0,1767084722.3255434,0
0.0,19.5475,,,2008420.0,1767084722.386413,0
0.0,22.7425,,,2009134.0,1767084722.4472826,0
0.0,16.8375,0.288126,33.99,2010572.0,1767084722.5081522,0
0.0,18.695,,,2010063.0,1767084722.5690217,0
0.0,19.605,,,2005633.0,1767084722.6298914,0
0.0,12.75,,,2001747.0,1767084722.6907609,0
0.0,-3.395,0.289407,33.99,2000056.0,1767084722.7516305,0
0.0,-16.103333333333335,,,1998464.0,1767084722.8125,0
0.0,-27.677500000000002,,,1997597.0,1767084722.8733695,0
0.0,-47.7275,,,1996462.0,1767084722.9342391,0
0.0,-35.815,,,1995847.5,1767084722.9951086,0
0.0,5.955,0.290687,33.99,1996178.0,1767084723.0559783,0
0.0,25.227500000000003,,,1996877.0,1767084723.1168478,0
0.0,22.472500000000004,,,1997673.0,1767084723.1777174,0
0.0,19.137500000000003,,,1998706.5,1767084723.238587,0
0.0,23.3975,0.289407,33.99,2000543.0,1767084723.2994566,0
0.0,21.34,,,2001633.0,1767084723.360326,0
0.0,14.023333333333333,,,1997651.5,1767084723.4211957,0
0.0,1.2850000000000001,,,1994345.0,1767084723.4820652,0
0.0,-12.7075,0.289407,33.99,1992591.0,1767084723.542935,0
0.0,-26.152500000000003,,,1991916.0,1767084723.6038043,0
0.0,-44.715,,,1991546.0,1767084723.6646738,0
0.0,-38.265,,,1990140.0,1767084723.7255435,0
0.0,2.4749999999999996,0.286845,33.99,1990443.5,1767084723.786413,0
0.0,27.675,,,1991577.0,1767084723.8472826,0
0.0,29.3925,,,1992105.0,1767084723.908152,0
0.0,26.659999999999997,,,1993678.0,1767084723.9690218,0
0.0,30.96666666666667,0.286845,33.99,1994764.0,1767084724.0298913,0
0.0,31.499999999999996,,,1996517.0,1767084724.090761,0
0.0,22.387500000000003,,,1998093.0,1767084724.1516304,0
0.0,10.0225,,,1996971.5,1767084724.2125,0
0.0,-2.58,0.288126,34.0,1993857.0,1767084724.2733696,0
0.0,-15.0,,,1991975.0,1767084724.3342392,0
0.0,-26.4025,,,1991711.0,1767084724.3951087,0
0.0,-48.155,,,1991608.0,1767084724.4559782,0
0.0,-51.254999999999995,0.285565,34.0,1991151.0,1767084724.5168478,0
0.0,-14.423333333333334,,,1991411.0,1767084724.5777173,0
0.0,20.985,,,1992327.5,1767084724.638587,0
0.0,34.7225,,,1993799.0,1767084724.6994565,0
0.0,33.5525,0.286845,34.0,1995747.0,1767084724.7603261,0
0.0,32.660000000000004,,,1997260.0,1767084724.8211956,0
0.0,29.212500000000002,,,1999189.5,1767084724.8820653,0
0.0,24.4975,,,2001483.0,1767084724.9429348,0
0.0,11.4025,0.289407,34.0,2001824.0,1767084725.0038044,0
0.0,-1.1325,,,1999627.0,1767084725.064674,0
0.0,-11.7275,,,1998701.5,1767084725.1255436,0
0.0,-20.76,,,1998852.0,1767084725.186413,0
0.0,-31.14,,,1999742.0,1767084725.2472825,0
0.0,-51.38249999999999,0.288126,33.97,2000458.0,1767084725.3081522,0
0.0,-39.5375,,,2001058.0,1767084725.3690217,0
0.0,5.522499999999999,,,2002627.0,1767084725.4298913,0
0.0,29.545,,,2004221.5,1767084725.4907608,0
0.0,29.0275,0.286845,33.97,2006391.0,1767084725.5516305,0
0.0,26.5325,,,2008512.5,1767084725.6125,0
0.0,29.1875,,,2011575.5,1767084725.6733696,0
0.0,28.53333333333333,,,2013221.0,1767084725.734239,0
0.0,22.25,0.288126,33.97,2011793.0,1767084725.7951088,0
0.0,10.3625,,,2010894.0,1767084725.8559783,0
0.0,-2.5324999999999998,,,2011705.5,1767084725.916848,0
0.0,-15.34,,,2012980.0,1767084725.9777174,0
0.0,-26.064999999999998,0.289407,33.97,2013639.0,1767084726.0385869,0
0.0,-44.697500000000005,,,2014223.0,1767084726.0994565,0
0.0,-46.585,,,2015777.5,1767084726.160326,0
0.0,-7.53,,,2018550.5,1767084726.2211957,0
0.0,20.8025,0.284284,33.99,2021436.0,1767084726.2820652,0
0.0,24.94666666666667,,,2023779.0,1767084726.3429348,0
0.0,20.64,,,2025956.0,1767084726.4038043,0
0.0,24.945,,,2024048.0,1767084726.464674,0
0.0,26.667499999999997,0.285565,33.99,2022311.0,1767084726.5255435,0
0.0,20.9925,,,2022156.5,1767084726.5864131,0
0.0,9.2525,,,2022739.0,1767084726.6472826,0
0.0,-3.955,,,2023350.5,1767084726.708152,0
0.0,-15.0475,0.286845,33.99,2023985.5,1767084726.7690217,0
0.0,-30.847499999999997,,,2025059.0,1767084726.8298912,0
0.0,-44.7225,,,2026457.0,1767084726.890761,0
0.0,-24.423333333333332,,,2028177.0,1767084726.9516304,0
0.0,9.3,0.286845,33.99,2029939.0,1767084727.0125,0
0.0,20.0275,,,2031791.0,1767084727.0733695,0
0.0,12.015,,,2029845.0,1767084727.1342392,0
0.0,11.830000000000002,,,2026680.0,1767084727.1951087,0
0.0,12.5875,0.285565,33.99,2025671.5,1767084727.2559783,0
0.0,5.6850000000000005,,,2025210.0,1767084727.3168478,0
0.0,-7.3225,,,2025474.0,1767084727.3777175,0
0.0,-15.709999999999997,,,2024986.5,1767084727.438587,0
0.0,-24.763333333333332,,,2025215.0,1767084727.4994564,0
0.0,-42.0725,0.288126,33.99,2026308.0,1767084727.560326,0
0.0,-36.9675,,,2027940.0,1767084727.6211956,0
0.0,1.2599999999999998,,,2028881.0,1767084727.6820652,0
0.0,23.0,,,2031093.0,1767084727.7429347,0
0.0,21.7525,0.286845,33.99,2031671.0,1767084727.8038044,0
0.0,17.1875,,,2028406.5,1767084727.8646739,0
0.0,18.2325,,,2025649.0,1767084727.9255435,0
0.0,13.6,,,2024093.0,1767084727.986413,0
0.0,1.6099999999999999,0.286845,33.99,2023283.0,1767084728.0472827,0
0.0,-13.31,,,2022920.0,1767084728.1081522,0
0.0,-23.45,,,2022308.0,1767084728.1690218,0
0.0,-42.765,,,2022513.5,1767084728.2298913,0
0.0,-54.8925,0.286845,33.97,2023591.5,1767084728.2907608,0
0.0,-19.919999999999998,,,2024505.0,1767084728.3516304,0
0.0,15.3525,,,2025874.0,1767084728.4125,0
0.0,24.9,,,2027568.0,1767084728.4733696,0
0.0,22.33,0.283004,33.97,2028772.0,1767084728.534239,0
0.0,25.5175,,,2029287.0,1767084728.5951087,0
0.0,26.293333333333333,,,2030309.0,1767084728.6559782,0
0.0,20.9,,,2027899.0,1767084728.716848,0
0.0,9.0175,0.283004,33.97,2025013.0,1767084728.7777174,0
0.0,-9.3425,,,2023372.5,1767084728.838587,0
0.0,-25.427500000000002,,,2023210.0,1767084728.8994565,0
0.0,-48.5275,,,2022802.5,1767084728.9603262,0
0.0,-61.48,0.283004,33.97,2022785.0,1767084729.0211957,0
0.0,-24.960000000000004,,,2023088.5,1767084729.082065,0
0.0,16.825,,,2024163.0,1767084729.1429348,0
0.0,31.697499999999998,,,2025317.5,1767084729.2038043,0
0.0,33.78333333333333,0.285565,33.97,2026622.0,1767084729.264674,0
0.0,36.5275,,,2028003.0,1767084729.3255434,0
0.0,38.2725,,,2029910.0,1767084729.386413,0
0.0,34.9925,,,2031807.0,1767084729.4472826,0
0.0,22.24,0.284284,33.97,2033410.0,1767084729.5081522,0
0.0,6.825,,,2030948.5,1767084729.5690217,0
0.0,-8.2875,,,2029207.0,1767084729.6298914,0
0.0,-23.542500000000004,,,2028367.5,1767084729.6907609,0
0.0,-38.932500000000005,0.286845,33.97,2028680.0,1767084729.7516305,0
0.0,-62.626666666666665,,,2028947.0,1767084729.8125,0
0.0,-62.73750000000001,,,2028962.5,1767084729.8733695,0
0.0,-15.322499999999998,,,2029834.0,1767084729.9342391,0
0.0,22.2875,,,2031317.5,1767084729.9951086,0
0.0,34.275,0.286845,33.97,2032634.0,1767084730.0559783,0
0.0,34.677499999999995,,,2034472.5,1767084730.1168478,0
0.0,37.5125,,,2036344.0,1767084730.1777174,0
0.0,37.86,,,2038367.0,1767084730.238587,0
0.0,33.1675,0.286845,33.97,2040286.0,1767084730.2994566,0
0.0,20.0575,,,2041128.0,1767084730.360326,0
0.0,9.21,,,2039268.0,1767084730.4211957,0
0.0,-2.6149999999999998,,,2038387.0,1767084730.4820652,0
0.0,-18.0725,0.286845,33.97,2038313.0,1767084730.542935,0
0.0,-32.14,,,2039247.5,1767084730.6038043,0
0.0,-57.495000000000005,,,2039819.0,1767084730.6646738,0
0.0,-60.8525,,,2040583.5,1767084730.7255435,0
0.0,-13.032500000000002,0.283004,33.97,2041643.0,1767084730.786413,0
0.0,23.9975,,,2043140.0,1767084730.8472826,0
0.0,33.265,,,2044950.0,1767084730.908152,0
0.0,30.6375,,,2046670.0,1767084730.9690218,0
0.0,32.38999999999999,0.281723,33.97,2048342.0,1767084731.0298913,0
0.0,32.085,,,2050515.0,1767084731.090761,0
0.0,29.87,,,2053323.5,1767084731.1516304,0
0.0,17.345,,,2053482.0,1767084731.2125,0
0.0,3.755,0.284284,33.97,2051849.5,1767084731.2733696,0
0.0,-8.712499999999999,,,2051775.0,1767084731.3342392,0
0.0,-20.685000000000002,,,2052347.0,1767084731.3951087,0
0.0,-33.184999999999995,,,2052963.0,1767084731.4559782,0
0.0,-53.332499999999996,0.281723,33.97,2053828.0,1767084731.5168478,0
0.0,-50.24,,,2054426.0,1767084731.5777173,0
0.0,-10.235,,,2055849.0,1767084731.638587,0
0.0,22.685,,,2057518.0,1767084731.6994565,0
0.0,29.22,0.284284,33.97,2059076.5,1767084731.7603261,0
0.0,24.7125,,,2061311.0,1767084731.8211956,0
0.0,27.682499999999997,,,2062994.5,1767084731.8820653,0
0.0,28.9375,,,2065014.0,1767084731.9429348,0
0.0,23.689999999999998,0.286845,33.97,2066287.5,1767084732.0038044,0
0.0,9.795,,,2064690.0,1767084732.064674,0
0.0,-0.12749999999999995,,,2064539.0,1767084732.1255436,0
0.0,-11.99,,,2065094.0,1767084732.186413,0
0.0,-22.565,,,2066184.5,1767084732.2472825,0
0.0,-34.1325,0.286845,33.99,2066924.0,1767084732.3081522,0
0.0,-54.755,,,2067808.5,1767084732.3690217,0
0.0,-44.150000000000006,,,2069038.0,1767084732.4298913,0
0.0,0.7449999999999997,,,2070680.0,1767084732.4907608,0
0.0,22.8825,0.285565,33.99,2073382.5,1767084732.5516305,0
0.0,22.3975,,,2075184.0,1767084732.6125,0
0.0,21.232499999999998,,,2077230.0,1767084732.6733696,0
0.0,26.55666666666667,,,2078366.0,1767084732.734239,0
0.0,27.417499999999997,0.284284,33.99,2076827.0,1767084732.7951088,0
0.0,19.4575,,,2076804.0,1767084732.8559783,0
0.0,7.6875,,,2077589.0,1767084732.916848,0
0.0,-4.1425,,,2078949.0,1767084732.9777174,0
0.0,-16.8425,0.283004,33.99,2079967.0,1767084733.0385869,0
0.0,-27.53,,,2080978.0,1767084733.0994565,0
0.0,-48.595000000000006,,,2082326.5,1767084733.160326,0
0.0,-44.542500000000004,,,2084251.0,1767084733.2211957,0
0.0,-2.4250000000000003,0.280443,33.97,2086429.0,1767084733.2820652,0
0.0,21.603333333333335,,,2088471.0,1767084733.3429348,0
0.0,24.1575,,,2089702.0,1767084733.4038043,0
0.0,18.6875,,,2088862.0,1767084733.464674,0
0.0,21.832500000000003,0.280443,33.97,2088322.5,1767084733.5255435,0
0.0,20.747500000000002,,,2088980.0,1767084733.5864131,0
0.0,14.114999999999998,,,2090775.0,1767084733.6472826,0
0.0,1.1525000000000003,,,2092108.0,1767084733.708152,0
0.0,-10.4575,0.279162,33.97,2092730.0,1767084733.7690217,0
0.0,-22.875,,,2093510.0,1767084733.8298912,0
0.0,-40.737500000000004,,,2095494.0,1767084733.890761,0
0.0,-39.81,,,2097875.5,1767084733.9516304,0
0.0,-8.750000000000002,0.280443,33.97,2098738.0,1767084734.0125,0
0.0,17.85,,,2097093.0,1767084734.0733695,0
0.0,18.1075,,,2096306.0,1767084734.1342392,0
0.0,9.7675,,,2096957.5,1767084734.1951087,0
0.0,12.174999999999999,0.279162,33.97,2097574.0,1767084734.2559783,0
0.0,13.280000000000001,,,2098029.5,1767084734.3168478,0
0.0,4.25,,,2098264.0,1767084734.3777175,0
0.0,-9.822500000000002,,,2098709.5,1767084734.438587,0
0.0,-21.216666666666665,,,2100160.0,1767084734.4994564,0
0.0,-38.71,0.281723,33.97,2101142.0,1767084734.560326,0
0.0,-41.3825,,,2101474.0,1767084734.6211956,0
0.0,-4.91,,,2100214.0,1767084734.6820652,0
0.0,20.2425,,,2097901.0,1767084734.7429347,0
0.0,17.175,0.280443,33.97,2095990.0,1767084734.8038044,0
0.0,5.72,,,2096068.0,1767084734.8646739,0
0.0,8.4025,,,2095889.0,1767084734.9255435,0
0.0,8.895,,,2095594.0,1767084734.986413,0
0.0,-4.1850000000000005,0.281723,33.97,2095438.5,1767084735.0472827,0
0.0,-18.316666666666666,,,2095607.0,1767084735.1081522,0
0.0,-38.6525,,,2095173.5,1767084735.1690218,0
0.0,-50.7675,,,2094885.0,1767084735.2298913,0
0.0,-16.305,0.283004,33.97,2092227.5,1767084735.2907608,0
0.0,21.53,,,2089063.0,1767084735.3516304,0
0.0,25.145000000000003,,,2088650.0,1767084735.4125,0
0.0,11.2425,,,2089417.0,1767084735.4733696,0
0.0,11.8525,0.283004,33.97,2090703.0,1767084735.534239,0
0.0,14.200000000000001,,,2091394.5,1767084735.5951087,0
0.0,6.433333333333334,,,2092881.0,1767084735.6559782,0
0.0,-7.470000000000001,,,2093457.0,1767084735.716848,0
0.0,-33.8,0.279162,33.97,2094385.0,1767084735.7777174,0
0.0,-38.0675,,,2095564.5,1767084735.838587,0
0.0,3.085,,,2095616.0,1767084735.8994565,0
0.0,33.535,,,2091423.5,1767084735.9603262,0
0.0,28.62,0.279162,33.97,2088559.0,1767084736.0211957,0
0.0,14.49,,,2086430.5,1767084736.082065,0
0.0,14.082500000000001,,,2085095.0,1767084736.1429348,0
0.0,8.4475,,,2084319.0,1767084736.2038043,0
0.0,-1.42,0.277882,33.95,2083089.0,1767084736.264674,0
0.0,-17.0925,,,2083083.0,1767084736.3255434,0
0.0,-42.56,,,2083824.0,1767084736.386413,0
0.0,-36.8425,,,2084363.0,1767084736.4472826,0
0.0,9.5975,0.277882,33.95,2085601.0,1767084736.5081522,0
0.0,36.4525,,,2086689.5,1767084736.5690217,0
0.0,35.46,,,2088077.0,1767084736.6298914,0
0.0,29.1375,,,2088079.5,1767084736.6907609,0
0.0,28.212500000000002,0.277882,33.95,2085438.5,1767084736.7516305,0
0.0,22.11,,,2084030.0,1767084736.8125,0
0.0,7.4975000000000005,,,2084072.5,1767084736.8733695,0
0.0,-14.840000000000002,,,2084576.0,1767084736.9342391,0
0.0,-38.4175,,,2085324.5,1767084736.9951086,0
0.0,-62.365,0.280443,33.95,2085971.0,1767084737.0559783,0
0.0,-33.9075,,,2087395.0,1767084737.1168478,0
0.0,22.847499999999997,,,2089259.0,1767084737.1777174,0
0.0,46.9375,,,2090927.5,1767084737.238587,0
0.0,46.365,0.281723,33.95,2092741.0,1767084737.2994566,0
0.0,43.209999999999994,,,2095335.5,1767084737.360326,0
0.0,46.943333333333335,,,2097459.0,1767084737.4211957,0
0.0,47.35,,,2099676.0,1767084737.4820652,0
0.0,39.75,0.283004,33.95,2100574.0,1767084737.542935,0
0.0,19.745,,,2101113.0,1767084737.6038043,0
0.0,-3.3475,,,2102089.0,1767084737.6646738,0
0.0,-23.607499999999998,,,2103472.0,1767084737.7255435,0
0.0,-52.0175,0.281723,33.95,2105318.0,1767084737.786413,0
0.0,-66.37,,,2106956.0,1767084737.8472826,0
0.0,-23.9425,,,2108762.0,1767084737.908152,0
0.0,18.759999999999998,,,2111379.5,1767084737.9690218,0
0.0,34.730000000000004,0.283004,33.95,2113445.0,1767084738.0298913,0
0.0,38.175,,,2115522.0,1767084738.090761,0
0.0,37.7525,,,2118122.0,1767084738.1516304,0
0.0,36.66,,,2120606.5,1767084738.2125,0
0.0,31.8275,0.280443,33.97,2123110.0,1767084738.2733696,0
0.0,19.4925,,,2125931.0,1767084738.3342392,0
0.0,4.887500000000001,,,2127236.0,1767084738.3951087,0
0.0,-9.309999999999999,,,2128907.0,1767084738.4559782,0
0.0,-21.8425,0.277882,33.97,2130556.0,1767084738.5168478,0
0.0,-34.09,,,2132750.0,1767084738.5777173,0
0.0,-50.707499999999996,,,2134420.0,1767084738.638587,0
0.0,-38.050000000000004,,,2136343.0,1767084738.6994565,0
0.0,2.5974999999999997,0.280443,33.97,2138473.0,1767084738.7603261,0
0.0,25.29,,,2140738.0,1767084738.8211956,0
0.0,30.6625,,,2143266.0,1767084738.8820653,0
0.0,27.855,,,2145290.0,1767084738.9429348,0
0.0,26.792499999999997,0.277882,33.97,2147902.0,1767084739.0038044,0
0.0,23.405,,,2149992.0,1767084739.064674,0
0.0,15.679999999999998,,,2152559.5,1767084739.1255436,0
0.0,4.74,,,2154917.0,1767084739.186413,0
0.0,-2.2325,,,2156443.5,1767084739.2472825,0
0.0,-11.95,0.280443,33.95,2157583.0,1767084739.3081522,0
0.0,-21.845000000000002,,,2158620.0,1767084739.3690217,0
0.0,-31.422500000000003,,,2160536.0,1767084739.4298913,0
0.0,-46.849999999999994,,,2162382.0,1767084739.4907608,0
0.0,-40.375,0.281723,33.95,2164223.0,1767084739.5516305,0
0.0,-4.574999999999999,,,2166047.5,1767084739.6125,0
0.0,15.2325,,,2167821.0,1767084739.6733696,0
0.0,17.736666666666668,,,2169915.0,1767084739.734239,0
0.0,14.645,0.281723,33.95,2172809.5,1767084739.7951088,0
0.0,14.610000000000001,,,2174404.0,1767084739.8559783,0
0.0,13.912500000000001,,,2176551.0,1767084739.916848,0
0.0,9.342500000000001,,,2178973.0,1767084739.9777174,0
0.0,0.645,0.280443,33.95,2180612.5,1767084740.0385869,0
0.0,-5.645,,,2182462.0,1767084740.0994565,0
0.0,-3.1675,,,2183508.0,1767084740.160326,0
0.0,-7.200000000000001,,,2184460.0,1767084740.2211957,0
0.0,-15.504999999999999,0.279162,33.97,2185519.5,1767084740.2820652,0
0.0,-27.349999999999998,,,2187282.0,1767084740.3429348,0
0.0,-38.625,,,2188350.5,1767084740.4038043,0
0.0,-26.2125,,,2189562.0,1767084740.464674,0
0.0,2.675,0.276601,33.97,2191146.5,1767084740.5255435,0
0.0,11.715000000000002,,,2192467.0,1767084740.5864131,0
0.0,7.199999999999999,,,2194102.5,1767084740.6472826,0
0.0,6.9575,,,2195655.0,1767084740.708152,0
0.0,11.879999999999999,0.276601,33.97,2196906.5,1767084740.7690217,0
0.0,11.075,,,2198296.0,1767084740.8298912,0
0.0,6.0125,,,2199856.0,1767084740.890761,0
0.0,1.1733333333333333,,,2201989.0,1767084740.9516304,0
0.0,-4.3925,0.279162,33.97,2202385.0,1767084741.0125,0
0.0,-10.865,,,2202589.5,1767084741.0733695,0
0.0,-16.8275,,,2203392.0,1767084741.1342392,0
0.0,-22.1575,,,2204201.5,1767084741.1951087,0
0.0,-33.602500000000006,0.276601,33.97,2205044.0,1767084741.2559783,0
0.0,-30.452499999999997,,,2205996.5,1767084741.3168478,0
0.0,-4.2125,,,2206716.0,1767084741.3777175,0
0.0,10.5625,,,2208254.5,1767084741.438587,0
0.0,10.333333333333334,,,2209059.0,1767084741.4994564,0
0.0,7.965,0.277882,33.97,2209853.5,1767084741.560326,0
0.0,11.572500000000002,,,2211048.0,1767084741.6211956,0
0.0,13.13,,,2212021.0,1767084741.6820652,0
0.0,10.4925,,,2213505.0,1767084741.7429347,0
0.0,3.9525,0.280443,33.97,2214303.0,1767084741.8038044,0
0.0,-4.04,,,2213832.0,1767084741.8646739,0
0.0,-11.3375,,,2213281.0,1767084741.9255435,0
0.0,-16.677500000000002,,,2213151.0,1767084741.986413,0
0.0,-20.419999999999998,0.280443,33.97,2212692.5,1767084742.0472827,0
0.0,-32.53,,,2212960.0,1767084742.1081522,0
0.0,-33.419999999999995,,,2212391.5,1767084742.1690218,0
0.0,-10.7125,,,2212605.0,1767084742.2298913,0
0.0,6.775,0.279162,33.93,2212690.5,1767084742.2907608,0
0.0,6.932499999999999,,,2212942.5,1767084742.3516304,0
0.0,3.75,,,2212968.0,1767084742.4125,0
0.0,8.29,,,2213285.0,1767084742.4733696,0
0.0,10.227500000000001,0.280443,33.93,2213775.0,1767084742.534239,0
0.0,7.8575,,,2213953.0,1767084742.5951087,0
0.0,1.8066666666666666,,,2212676.0,1767084742.6559782,0
0.0,-2.645,,,2209610.0,1767084742.716848,0
0.0,-8.017499999999998,0.276601,33.93,2208138.0,1767084742.7777174,0
0.0,-14.605,,,2206569.5,1767084742.838587,0
0.0,-20.7225,,,2205534.0,1767084742.8994565,0
0.0,-32.2275,,,2203478.0,1767084742.9603262,0
0.0,-28.7175,0.276601,33.93,2201934.0,1767084743.0211957,0
0.0,-2.04,,,2201410.0,1767084743.082065,0
0.0,11.8475,,,2200741.0,1767084743.1429348,0
0.0,9.04,,,2200019.0,1767084743.2038043,0
0.0,6.866666666666667,0.276601,33.95,2199620.0,1767084743.264674,0
0.0,10.450000000000001,,,2199152.0,1767084743.3255434,0
0.0,12.1525,,,2197779.0,1767084743.386413,0
0.0,6.2299999999999995,,,2191918.5,1767084743.4472826,0
0.0,-1.8450000000000002,0.276601,33.95,2188798.0,1767084743.5081522,0
0.0,-8.0225,,,2186979.5,1767084743.5690217,0
0.0,-14.9325,,,2185138.0,1767084743.6298914,0
0.0,-21.67,,,2182763.5,1767084743.6907609,0
0.0,-35.635000000000005,0.279162,33.95,2180422.0,1767084743.7516305,0
0.0,-39.156666666666666,,,2178857.0,1767084743.8125,0
0.0,-16.91,,,2177829.0,1767084743.8733695,0
0.0,6.2475000000000005,,,2176812.0,1767084743.9342391,0
0.0,10.215,,,2176180.0,1767084743.9951086,0
0.0,6.192500000000001,0.279162,33.95,2175199.5,1767084744.0559783,0
0.0,8.98,,,2171898.0,1767084744.1168478,0
0.0,12.9975,,,2166402.0,1767084744.1777174,0
0.0,10.764999999999999,,,2161842.5,1767084744.238587,0
0.0,2.235,0.280443,33.95,2159727.0,1767084744.2994566,0
0.0,-8.8675,,,2156721.5,1767084744.360326,0
0.0,-16.393333333333334,,,2153833.0,1767084744.4211957,0
0.0,-25.742500000000003,,,2151809.0,1767084744.4820652,0
0.0,-37.019999999999996,0.279162,33.95,2149983.0,1767084744.542935,0
0.0,-24.407500000000002,,,2148572.0,1767084744.6038043,0
0.0,7.2375,,,2147733.0,1767084744.6646738,0
0.0,19.5975,,,2147268.0,1767084744.7255435,0
0.0,12.4775,0.280443,33.95,2146458.0,1767084744.786413,0
0.0,10.315000000000001,,,2141845.5,1767084744.8472826,0
0.0,14.2625,,,2135847.0,1767084744.908152,0
0.0,13.535,,,2131517.5,1767084744.9690218,0
0.0,9.333333333333334,0.279162,33.95,2128198.0,1767084745.0298913,0
0.0,-4.0200000000000005,,,2125736.5,1767084745.090761,0
0.0,-20.005000000000003,,,2122468.0,1767084745.1516304,0
0.0,-35.4775,,,2120703.5,1767084745.2125,0
0.0,-48.225,0.276601,33.95,2122458.0,1767084745.2733696,0
0.0,-26.7575,,,2123723.0,1767084745.3342392,0
0.0,8.857500000000002,,,2124159.5,1767084745.3951087,0
0.0,20.1625,,,2123991.0,1767084745.4559782,0
0.0,14.235,0.27532,33.95,2120536.5,1767084745.5168478,0
0.0,16.03,,,2113469.0,1767084745.5777173,0
0.0,21.0625,,,2108276.5,1767084745.638587,0
0.0,19.115,,,2103843.0,1767084745.6994565,0
0.0,8.815,0.277882,33.95,2100507.0,1767084745.7603261,0
0.0,-6.6899999999999995,,,2096506.0,1767084745.8211956,0
0.0,-19.885,,,2092984.0,1767084745.8820653,0
0.0,-40.25,,,2090775.0,1767084745.9429348,0
0.0,-35.88,0.279162,33.95,2088807.0,1767084746.0038044,0
0.0,5.5825,,,2087144.0,1767084746.064674,0
0.0,31.2175,,,2086097.5,1767084746.1255436,0
0.0,30.330000000000002,,,2084657.0,1767084746.186413,0
0.0,23.7775,,,2079112.0,1767084746.2472825,0
0.0,26.8525,0.277882,33.95,2072483.0,1767084746.3081522,0
0.0,27.262500000000003,,,2068973.5,1767084746.3690217,0
0.0,21.802500000000002,,,2066299.0,1767084746.4298913,0
0.0,7.299999999999999,,,2063899.5,1767084746.4907608,0
0.0,-6.1075,0.280443,33.95,2061064.0,1767084746.5516305,0
0.0,-24.9825,,,2059405.0,1767084746.6125,0
0.0,-38.455,,,2058659.0,1767084746.6733696,0
0.0,-17.016666666666666,,,2057812.5,1767084746.734239,0
0.0,16.9,0.280443,33.95,2057964.0,1767084746.7951088,0
0.0,29.3925,,,2057368.5,1767084746.8559783,0
0.0,21.7975,,,2053817.0,1767084746.916848,0
0.0,20.9575,,,2047276.0,1767084746.9777174,0
0.0,22.2075,0.279162,33.95,2042347.0,1767084747.0385869,0
0.0,19.78,,,2040136.0,1767084747.0994565,0
0.0,7.0675,,,2037931.5,1767084747.160326,0
0.0,-8.58,,,2035423.0,1767084747.2211957,0
0.0,-26.025,0.276601,33.95,2033977.5,1767084747.2820652,0
0.0,-46.34666666666667,,,2033320.0,1767084747.3429348,0
0.0,-33.7,,,2032915.0,1767084747.4038043,0
0.0,16.015,,,2032828.0,1767084747.464674,0
0.0,39.222500000000004,0.27532,33.95,2032184.5,1767084747.5255435,0
0.0,34.6075,,,2027537.0,1767084747.5864131,0
0.0,28.752499999999998,,,2021569.5,1767084747.6472826,0
0.0,31.1175,,,2017646.0,1767084747.708152,0
0.0,27.89,0.27532,33.95,2015428.5,1767084747.7690217,0
0.0,14.865000000000002,,,2013363.0,1767084747.8298912,0
0.0,-0.7000000000000001,,,2010821.0,1767084747.890761,0
0.0,-12.770000000000001,,,2008960.0,1767084747.9516304,0
0.0,-32.42,0.276601,33.95,2008298.5,1767084748.0125,0
0.0,-30.9625,,,2008493.0,1767084748.0733695,0
0.0,9.08,,,2008552.5,1767084748.1342392,0
0.0,30.965,,,2008893.0,1767084748.1951087,0
0.0,25.195,0.27404,33.93,2006367.5,1767084748.2559783,0
0.0,21.6,,,1999763.0,1767084748.3168478,0
0.0,23.925,,,1995002.5,1767084748.3777175,0
0.0,21.375,,,1991062.0,1767084748.438587,0
0.0,10.74,,,1988706.0,1767084748.4994564,0
0.0,-3.6624999999999996,0.277882,33.93,1986768.5,1767084748.560326,0
0.0,-17.285,,,1985260.0,1767084748.6211956,0
0.0,-38.49,,,1984597.5,1767084748.6820652,0
0.0,-37.8275,,,1984662.0,1767084748.7429347,0
0.0,2.1724999999999994,0.277882,33.93,1984865.0,1767084748.8038044,0
0.0,26.735,,,1985446.0,1767084748.8646739,0
0.0,26.662499999999998,,,1986460.0,1767084748.9255435,0
0.0,22.42,,,1985183.0,1767084748.986413,0
0.0,23.2975,0.277882,33.93,1978754.5,1767084749.0472827,0
0.0,21.156666666666666,,,1973421.0,1767084749.1081522,0
0.0,13.965000000000002,,,1970064.5,1767084749.1690218,0
0.0,-0.6874999999999999,,,1968208.0,1767084749.2298913,0
0.0,-14.4025,0.277882,33.93,1966562.5,1767084749.2907608,0
0.0,-35.722500000000004,,,1964740.0,1767084749.3516304,0
0.0,-44.925,,,1964421.5,1767084749.4125,0
0.0,-10.73,,,1964160.0,1767084749.4733696,0
0.0,18.9025,0.27404,33.93,1964978.0,1767084749.534239,0
0.0,26.235000000000003,,,1966479.5,1767084749.5951087,0
0.0,22.676666666666666,,,1967691.0,1767084749.6559782,0
0.0,24.03,,,1969293.5,1767084749.716848,0
0.0,25.5025,0.27404,33.93,1971400.0,1767084749.7777174,0
0.0,19.4125,,,1969455.0,1767084749.838587,0
0.0,7.885,,,1963667.0,1767084749.8994565,0
0.0,-7.19,,,1959380.0,1767084749.9603262,0
0.0,-19.39,0.27404,33.93,1956160.0,1767084750.0211957,0
0.0,-37.915,,,1954906.5,1767084750.082065,0
0.0,-49.1225,,,1953626.0,1767084750.1429348,0
0.0,-18.294999999999998,,,1951987.0,1767084750.2038043,0
0.0,13.833333333333334,0.27532,33.93,1952388.5,1767084750.264674,0
0.0,28.265,,,1953081.0,1767084750.3255434,0
0.0,29.932499999999997,,,1953899.5,1767084750.386413,0
0.0,29.6925,,,1955269.0,1767084750.4472826,0
0.0,31.3525,0.276601,33.93,1956896.0,1767084750.5081522,0
0.0,29.1175,,,1958428.0,1767084750.5690217,0
0.0,19.3225,,,1960755.0,1767084750.6298914,0
0.0,7.275,,,1959873.0,1767084750.6907609,0
0.0,-3.365,0.277882,33.93,1954565.0,1767084750.7516305,0
0.0,-16.316666666666666,,,1950856.0,1767084750.8125,0
0.0,-27.0825,,,1949096.0,1767084750.8733695,0
0.0,-42.905,,,1947759.5,1767084750.9342391,0
0.0,-60.735,,,1946602.0,1767084750.9951086,0
0.0,-36.955,0.277882,33.93,1946466.5,1767084751.0559783,0
0.0,3.6075000000000004,,,1947073.0,1767084751.1168478,0
0.0,23.3075,,,1948200.0,1767084751.1777174,0
0.0,26.857499999999998,,,1949983.0,1767084751.238587,0
0.0,29.36,0.277882,33.95,1951199.5,1767084751.2994566,0
0.0,30.057499999999997,,,1952893.0,1767084751.360326,0
0.0,28.97666666666667,,,1955561.5,1767084751.4211957,0
0.0,23.17,,,1957045.0,1767084751.4820652,0
0.0,9.1375,0.27404,33.95,1952444.0,1767084751.542935,0
0.0,0.2499999999999999,,,1948586.0,1767084751.6038043,0
0.0,-12.254999999999999,,,1946724.5,1767084751.6646738,0
0.0,-23.905,,,1945888.0,1767084751.7255435,0
0.0,-40.3575,0.272759,33.95,1945168.0,1767084751.786413,0
0.0,-58.685,,,1944639.0,1767084751.8472826,0
0.0,-35.145,,,1944643.0,1767084751.908152,0
0.0,3.615,,,1945746.0,1767084751.9690218,0
0.0,19.55666666666667,0.272759,33.95,1946724.5,1767084752.0298913,0
0.0,21.2925,,,1948214.0,1767084752.090761,0
0.0,21.3875,,,1950323.5,1767084752.1516304,0
0.0,22.315,,,1952804.0,1767084752.2125,0
0.0,21.0475,0.272759,33.91,1955374.0,1767084752.2733696,0
0.0,15.325000000000001,,,1953728.5,1767084752.3342392,0
0.0,5.355,,,1948888.0,1767084752.3951087,0
0.0,-6.125,,,1945923.0,1767084752.4559782,0
0.0,-13.8375,0.27532,33.91,1944429.0,1767084752.5168478,0
0.0,-18.173333333333336,,,1944246.5,1767084752.5777173,0
0.0,-35.405,,,1943228.0,1767084752.638587,0
0.0,-45.95,,,1942725.5,1767084752.6994565,0
0.0,-13.065,0.276601,33.91,1943437.0,1767084752.7603261,0
0.0,15.7,,,1944833.0,1767084752.8211956,0
0.0,23.392500000000002,,,1946133.0,1767084752.8820653,0
0.0,22.560000000000002,,,1947726.5,1767084752.9429348,0
0.0,23.73,0.276601,33.91,1950016.0,1767084753.0038044,0
0.0,24.5075,,,1951995.0,1767084753.064674,0
0.0,20.189999999999998,,,1953099.0,1767084753.1255436,0
0.0,10.936666666666666,,,1948956.5,1767084753.186413,0
0.0,1.1650000000000005,,,1945044.0,1767084753.2472825,0
0.0,-11.7425,0.27532,33.93,1942931.0,1767084753.3081522,0
0.0,-24.1975,,,1942190.0,1767084753.3690217,0
0.0,-37.667500000000004,,,1941808.0,1767084753.4298913,0
0.0,-57.8625,,,1941077.0,1767084753.4907608,0
0.0,-41.412499999999994,0.272759,33.93,1941733.5,1767084753.5516305,0
0.0,1.6275,,,1942880.0,1767084753.6125,0
0.0,21.4875,,,1944208.5,1767084753.6733696,0
0.0,23.113333333333333,,,1945857.0,1767084753.734239,0
0.0,22.3725,0.272759,33.93,1947857.0,1767084753.7951088,0
0.0,25.5575,,,1950840.5,1767084753.8559783,0
0.0,25.92,,,1951865.0,1767084753.916848,0
0.0,20.0975,,,1947625.5,1767084753.9777174,0
0.0,9.7025,0.272759,33.93,1944654.0,1767084754.0385869,0
0.0,-0.13749999999999996,,,1943724.5,1767084754.0994565,0
0.0,-14.01,,,1943665.0,1767084754.160326,0
0.0,-25.347499999999997,,,1943465.5,1767084754.2211957,0
0.0,-43.4375,0.27404,33.93,1943146.0,1767084754.2820652,0
0.0,-49.126666666666665,,,1944270.5,1767084754.3429348,0
0.0,-21.5475,,,1945879.0,1767084754.4038043,0
0.0,5.8325,,,1947723.5,1767084754.464674,0
0.0,10.47,0.27532,33.93,1949654.0,1767084754.5255435,0
0.0,10.2325,,,1951553.0,1767084754.5864131,0
0.0,16.515,,,1953904.0,1767084754.6472826,0
0.0,22.1575,,,1953356.0,1767084754.708152,0
0.0,19.7175,0.276601,33.93,1949597.0,1767084754.7690217,0
0.0,11.015,,,1948130.0,1767084754.8298912,0
0.0,-0.5625000000000001,,,1947868.0,1767084754.890761,0
0.0,-11.79,,,1948527.5,1767084754.9516304,0
0.0,-21.675,0.277882,33.93,1948074.0,1767084755.0125,0
0.0,-40.4725,,,1948917.5,1767084755.0733695,0
0.0,-47.6,,,1950338.0,1767084755.1342392,0
0.0,-9.5825,,,1951878.0,1767084755.1951087,0
0.0,21.34,0.276601,33.93,1954070.0,1767084755.2559783,0
0.0,25.6125,,,1956154.5,1767084755.3168478,0
0.0,22.5275,,,1958582.0,1767084755.3777175,0
0.0,25.2625,,,1958715.5,1767084755.438587,0
0.0,24.539999999999996,,,1954640.5,1767084755.4994564,0
0.0,18.7325,0.27404,33.93,1953690.0,1767084755.560326,0
0.0,8.3875,,,1953993.5,1767084755.6211956,0
0.0,-4.202500000000001,,,1954724.0,1767084755.6820652,0
0.0,-15.73,,,1954345.5,1767084755.7429347,0
0.0,-29.965,0.272759,33.93,1954889.0,1767084755.8038044,0
0.0,-47.6,,,1956717.5,1767084755.8646739,0
0.0,-28.055,,,1958441.0,1767084755.9255435,0
0.0,10.475,,,1960681.5,1767084755.986413,0
0.0,22.502499999999998,0.27532,33.93,1963018.0,1767084756.0472827,0
0.0,17.12666666666667,,,1964626.0,1767084756.1081522,0
0.0,15.3575,,,1962881.0,1767084756.1690218,0
0.0,20.2425,,,1959985.0,1767084756.2298913,0
0.0,19.41,0.272759,33.91,1958950.0,1767084756.2907608,0
0.0,11.350000000000001,,,1959763.0,1767084756.3516304,0
0.0,-1.94,,,1960224.0,1767084756.4125,0
0.0,-11.837499999999999,,,1960280.0,1767084756.4733696,0
0.0,-26.8275,0.27532,33.91,1961116.0,1767084756.534239,0
0.0,-42.645,,,1962780.0,1767084756.5951087,0
0.0,-25.903333333333332,,,1964343.0,1767084756.6559782,0
0.0,8.4,,,1966943.0,1767084756.716848,0
0.0,23.845,0.27532,33.91,1969072.0,1767084756.7777174,0
0.0,18.6875,,,1967371.5,1767084756.838587,0
0.0,14.900000000000002,,,1964448.0,1767084756.8994565,0
0.0,18.505000000000003,,,1964534.5,1767084756.9603262,0
0.0,15.4175,0.276601,33.91,1964969.0,1767084757.0211957,0
0.0,6.202500000000001,,,1965865.0,1767084757.082065,0
0.0,-7.24,,,1966064.5,1767084757.1429348,0
0.0,-17.55,,,1967066.0,1767084757.2038043,0
0.0,-33.23,0.276601,33.93,1968772.5,1767084757.264674,0
0.0,-42.555,,,1970588.0,1767084757.3255434,0
0.0,-14.492500000000001,,,1972553.5,1767084757.386413,0
0.0,20.78,,,1973278.0,1767084757.4472826,0
0.0,28.02,0.27532,33.93,1969863.5,1767084757.5081522,0
0.0,23.85,,,1968343.0,1767084757.5690217,0
0.0,29.8375,,,1968789.5,1767084757.6298914,0
0.0,35.04,,,1969380.0,1767084757.6907609,0
0.0,29.78,0.27404,33.93,1969944.5,1767084757.7516305,0
0.0,21.870000000000005,,,1970592.0,1767084757.8125,0
0.0,-1.9074999999999998,,,1971994.5,1767084757.8733695,0
0.0,-49.655,,,1973962.0,1767084757.9342391,0
0.0,-74.08500000000001,,,1975619.5,1767084757.9951086,0
0.0,-43.7975,0.272759,33.93,1978213.0,1767084758.0559783,0
0.0,-9.305000000000001,,,1977586.0,1767084758.1168478,0
0.0,-1.8224999999999998,,,1974493.0,1767084758.1777174,0
0.0,-2.9450000000000003,,,1973715.0,1767084758.238587,0
0.0,3.6675,0.271479,33.93,1974523.0,1767084758.2994566,0
0.0,10.2075,,,1975260.5,1767084758.360326,0
0.0,5.266666666666667,,,1975330.0,1767084758.4211957,0
0.0,-6.4575,,,1976348.0,1767084758.4820652,0
0.0,-19.2175,0.270198,33.93,1977734.0,1767084758.542935,0
0.0,-35.8675,,,1979591.0,1767084758.6038043,0
0.0,-29.542500000000004,,,1981341.0,1767084758.6646738,0
0.0,10.350000000000001,,,1982322.5,1767084758.7255435,0
0.0,28.3625,0.27404,33.93,1979371.0,1767084758.786413,0
0.0,21.472500000000004,,,1977234.0,1767084758.8472826,0
0.0,15.0275,,,1977077.5,1767084758.908152,0
0.0,17.2325,,,1977357.0,1767084758.9690218,0
0.0,13.933333333333332,0.27532,33.93,1977906.5,1767084759.0298913,0
0.0,5.437500000000001,,,1979997.0,1767084759.090761,0
0.0,-7.3325,,,1982764.5,1767084759.1516304,0
0.0,-23.0075,,,1986036.0,1767084759.2125,0
0.0,-38.6875,0.288126,33.95,1989315.0,1767084759.2733696,0
0.0,-16.725,,,1990770.0,1767084759.3342392,0
0.0,18.4525,,,1988220.0,1767084759.3951087,0
0.0,23.042499999999997,,,1986681.0,1767084759.4559782,0
0.0,13.9125,0.27404,33.95,1986254.0,1767084759.5168478,0
0.0,11.976666666666667,,,1987632.0,1767084759.5777173,0
0.0,14.2125,,,1988089.5,1767084759.638587,0
0.0,7.47,,,1988565.0,1767084759.6994565,0
0.0,-6.3925,0.271479,33.95,1990080.5,1767084759.7603261,0
0.0,-23.2175,,,1991783.0,1767084759.8211956,0
0.0,-43.0175,,,1994070.0,1767084759.8820653,0
0.0,-32.385,,,1996026.0,1767084759.9429348,0
0.0,13.620000000000001,0.271479,33.95,1994237.0,1767084760.0038044,0
0.0,31.119999999999997,,,1991413.0,1767084760.064674,0
0.0,18.2275,,,1990004.5,1767084760.1255436,0
0.0,11.916666666666666,,,1989967.0,1767084760.186413,0
0.0,15.639999999999999,,,1990248.0,1767084760.2472825,0
0.0,10.255,0.272759,33.93,1989923.0,1767084760.3081522,0
0.0,-5.359999999999999,,,1990585.0,1767084760.3690217,0
0.0,-23.372500000000002,,,1992317.0,1767084760.4298913,0
0.0,-46.675,,,1993945.5,1767084760.4907608,0
0.0,-37.4625,0.272759,33.93,1996554.0,1767084760.5516305,0
0.0,9.2025,,,1999005.0,1767084760.6125,0
0.0,29.935,,,1997911.0,1767084760.6733696,0
0.0,27.096666666666664,,,1994691.0,1767084760.734239,0
0.0,19.4925,0.27532,33.93,1993553.0,1767084760.7951088,0
0.0,21.865,,,1993007.0,1767084760.8559783,0
0.0,17.46,,,1993512.5,1767084760.916848,0
0.0,2.0825,,,1993977.0,1767084760.9777174,0
0.0,-16.435000000000002,0.27532,33.93,1994721.5,1767084761.0385869,0
0.0,-41.3575,,,1996321.0,1767084761.0994565,0
0.0,-49.942499999999995,,,1998112.5,1767084761.160326,0
0.0,-7.285,,,2000094.0,1767084761.2211957,0
0.0,29.8,0.276601,33.93,2002257.5,1767084761.2820652,0
0.0,37.026666666666664,,,2004684.0,1767084761.3429348,0
0.0,32.8675,,,2007492.5,1767084761.4038043,0
0.0,32.957499999999996,,,2008760.0,1767084761.464674,0
0.0,28.165,0.276601,33.93,2006391.5,1767084761.5255435,0
0.0,19.4825,,,2004191.0,1767084761.5864131,0
0.0,0.30000000000000027,,,2004033.5,1767084761.6472826,0
0.0,-16.4825,,,2004547.0,1767084761.708152,0
0.0,-39.5,0.27532,33.93,2004845.5,1767084761.7690217,0
0.0,-58.31999999999999,,,2005695.0,1767084761.8298912,0
0.0,-23.275000000000002,,,2006630.5,1767084761.890761,0
0.0,19.823333333333334,,,2008289.0,1767084761.9516304,0
0.0,38.959999999999994,0.27404,33.93,2010500.5,1767084762.0125,0
0.0,40.7525,,,2012332.0,1767084762.0733695,0
0.0,38.662499999999994,,,2014712.5,1767084762.1342392,0
0.0,40.260000000000005,,,2017079.0,1767084762.1951087,0
0.0,34.4325,0.27532,33.93,2019770.0,1767084762.2559783,0
0.0,21.6475,,,2020228.0,1767084762.3168478,0
0.0,6.657500000000001,,,2017810.5,1767084762.3777175,0
0.0,-11.165,,,2016269.5,1767084762.438587,0
0.0,-25.51,,,2016061.0,1767084762.4994564,0
0.0,-39.265,0.272759,33.93,2016625.5,1767084762.560326,0
0.0,-64.685,,,2017008.0,1767084762.6211956,0
0.0,-51.24,,,2017863.5,1767084762.6820652,0
0.0,2.4650000000000003,,,2019417.0,1767084762.7429347,0
0.0,31.802500000000002,0.272759,33.93,2020791.5,1767084762.8038044,0
0.0,36.8725,,,2022751.0,1767084762.8646739,0
0.0,37.912499999999994,,,2024784.0,1767084762.9255435,0
0.0,40.245000000000005,,,2026884.0,1767084762.986413,0
0.0,37.2625,0.27404,33.93,2029253.5,1767084763.0472827,0
0.0,27.766666666666666,,,2031698.0,1767084763.1081522,0
0.0,12.942499999999999,,,2032261.0,1767084763.1690218,0
0.0,-0.7725000000000001,,,2030191.0,1767084763.2298913,0
0.0,-17.0475,0.276601,33.93,2029076.5,1767084763.2907608,0
0.0,-29.4825,,,2028602.0,1767084763.3516304,0
0.0,-51.645,,,2029475.5,1767084763.4125,0
0.0,-61.982499999999995,,,2029538.0,1767084763.4733696,0
0.0,-20.927500000000002,0.276601,33.93,2030367.0,1767084763.534239,0
0.0,20.1,,,2031466.0,1767084763.5951087,0
0.0,33.46666666666667,,,2033152.5,1767084763.6559782,0
0.0,32.6825,,,2035005.0,1767084763.716848,0
0.0,34.629999999999995,0.27532,33.93,2036268.0,1767084763.7777174,0
0.0,36.89,,,2038430.0,1767084763.838587,0
0.0,31.4675,,,2040536.5,1767084763.8994565,0
0.0,20.457500000000003,,,2043022.0,1767084763.9603262,0
0.0,7.8,0.272759,33.93,2044966.5,1767084764.0211957,0
0.0,-4.9125,,,2043362.5,1767084764.082065,0
0.0,-20.5275,,,2041635.0,1767084764.1429348,0
0.0,-31.895,,,2041198.5,1767084764.2038043,0
0.0,-48.82333333333333,0.272759,33.93,2041406.0,1767084764.264674,0
0.0,-65.52000000000001,,,2041923.0,1767084764.3255434,0
0.0,-40.4875,,,2042413.0,1767084764.386413,0
0.0,4.89,,,2043311.0,1767084764.4472826,0
0.0,23.4075,0.272759,33.93,2044523.0,1767084764.5081522,0
0.0,25.1025,,,2045807.0,1767084764.5690217,0
0.0,27.197499999999998,,,2047557.0,1767084764.6298914,0
0.0,31.6925,,,2049361.0,1767084764.6907609,0
0.0,29.800000000000004,0.272759,33.93,2051649.0,1767084764.7516305,0
0.0,22.900000000000002,,,2053433.0,1767084764.8125,0
0.0,12.5725,,,2055697.0,1767084764.8733695,0
0.0,3.0175,,,2055961.5,1767084764.9342391,0
0.0,-11.3175,,,2053751.0,1767084764.9951086,0
0.0,-24.4975,0.272759,33.93,2052553.0,1767084765.0559783,0
0.0,-37.965,,,2052461.0,1767084765.1168478,0
0.0,-60.9125,,,2052694.0,1767084765.1777174,0
0.0,-52.612500000000004,,,2052827.0,1767084765.238587,0
0.0,-6.9125,0.276601,33.91,2053119.5,1767084765.2994566,0
0.0,19.7275,,,2054085.0,1767084765.360326,0
0.0,25.313333333333333,,,2055339.5,1767084765.4211957,0
0.0,24.645,,,2056589.0,1767084765.4820652,0
0.0,28.435000000000002,0.276601,33.91,2058146.0,1767084765.542935,0
0.0,29.895000000000003,,,2059973.0,1767084765.6038043,0
0.0,25.09,,,2061711.0,1767084765.6646738,0
0.0,11.924999999999999,,,2064223.5,1767084765.7255435,0
0.0,1.0574999999999997,0.276601,33.91,2064493.0,1767084765.786413,0
0.0,-9.905000000000001,,,2062294.0,1767084765.8472826,0
0.0,-23.84,,,2061366.0,1767084765.908152,0
0.0,-34.085,,,2060700.0,1767084765.9690218,0
0.0,-49.123333333333335,0.276601,33.91,2061661.0,1767084766.0298913,0
0.0,-60.1725,,,2061494.5,1767084766.090761,0
0.0,-31.655,,,2061800.0,1767084766.1516304,0
0.0,9.59,,,2062536.5,1767084766.2125,0
0.0,23.1625,0.272759,33.93,2063544.0,1767084766.2733696,0
0.0,22.5125,,,2065291.0,1767084766.3342392,0
0.0,26.15,,,2066413.0,1767084766.3951087,0
0.0,28.71,,,2068552.0,1767084766.4559782,0
0.0,26.1425,0.272759,33.93,2070165.0,1767084766.5168478,0
0.0,19.333333333333332,,,2071661.5,1767084766.5777173,0
0.0,7.305000000000001,,,2069900.0,1767084766.638587,0
0.0,-2.7675,,,2068215.5,1767084766.6994565,0
0.0,-17.155,0.272759,33.93,2067720.0,1767084766.7603261,0
0.0,-28.5325,,,2068076.0,1767084766.8211956,0
0.0,-43.79,,,2068499.0,1767084766.8820653,0
0.0,-59.6675,,,2068060.5,1767084766.9429348,0
0.0,-31.8975,0.271479,33.93,2068823.0,1767084767.0038044,0
0.0,6.755000000000001,,,2069820.5,1767084767.064674,0
0.0,17.362499999999997,,,2071004.0,1767084767.1255436,0
0.0,14.273333333333333,,,2072248.0,1767084767.186413,0
0.0,15.6975,,,2073750.0,1767084767.2472825,0
0.0,19.302500000000002,0.27532,33.89,2075332.5,1767084767.3081522,0
0.0,17.08,,,2074859.5,1767084767.3690217,0
0.0,15.190000000000001,,,2072946.0,1767084767.4298913,0
0.0,12.9125,,,2071877.0,1767084767.4907608,0
0.0,2.4125000000000005,0.276601,33.89,2072410.0,1767084767.5516305,0
0.0,-12.5275,,,2072729.0,1767084767.6125,0
0.0,-29.45,,,2072566.0,1767084767.6733696,0
0.0,-50.35999999999999,,,2073071.0,1767084767.734239,0
0.0,-46.254999999999995,0.276601,33.89,2074433.0,1767084767.7951088,0
0.0,-5.702500000000001,,,2075585.0,1767084767.8559783,0
0.0,17.7075,,,2076963.0,1767084767.916848,0
0.0,18.6075,,,2078845.0,1767084767.9777174,0
0.0,15.6575,0.27532,33.89,2080664.0,1767084768.0385869,0
0.0,21.3875,,,2079498.5,1767084768.0994565,0
0.0,20.765,,,2077539.0,1767084768.160326,0
0.0,12.252500000000001,,,2077418.5,1767084768.2211957,0
0.0,-1.3075,0.276601,33.91,2078338.0,1767084768.2820652,0
0.0,-12.496666666666668,,,2078930.5,1767084768.3429348,0
0.0,-21.61,,,2079054.0,1767084768.4038043,0
0.0,-38.0775,,,2079930.5,1767084768.464674,0
0.0,-49.33500000000001,0.272759,33.91,2081375.0,1767084768.5255435,0
0.0,-18.6325,,,2082574.5,1767084768.5864131,0
0.0,14.95,,,2083982.0,1767084768.6472826,0
0.0,19.7675,,,2085831.5,1767084768.708152,0
0.0,13.22,0.272759,33.91,2085198.0,1767084768.7690217,0
0.0,18.0825,,,2083415.5,1767084768.8298912,0
0.0,19.63,,,2083525.0,1767084768.890761,0
0.0,13.956666666666665,,,2084179.5,1767084768.9516304,0
0.0,1.27,0.271479,33.91,2085111.0,1767084769.0125,0
0.0,-12.815000000000001,,,2085511.0,1767084769.0733695,0
0.0,-26.065000000000005,,,2086529.0,1767084769.1342392,0
0.0,-46.3525,,,2087678.0,1767084769.1951087,0
0.0,-48.160000000000004,0.27404,33.91,2089517.0,1767084769.2559783,0
0.0,-12.19,,,2091054.0,1767084769.3168478,0
0.0,23.8075,,,2090808.5,1767084769.3777175,0
0.0,33.795,,,2088930.0,1767084769.438587,0
0.0,33.056666666666665,,,2088629.0,1767084769.4994564,0
0.0,32.612500000000004,0.27532,33.91,2088853.0,1767084769.560326,0
0.0,26.16,,,2089017.5,1767084769.6211956,0
0.0,11.670000000000002,,,2089240.0,1767084769.6820652,0
0.0,-6.370000000000001,,,2090078.5,1767084769.7429347,0
0.0,-24.384999999999998,0.276601,33.91,2091379.0,1767084769.8038044,0
0.0,-46.279999999999994,,,2092520.5,1767084769.8646739,0
0.0,-36.5525,,,2093652.0,1767084769.9255435,0
0.0,6.115,,,2094889.0,1767084769.986413,0
0.0,23.955,0.27532,33.91,2093608.0,1767084770.0472827,0
0.0,18.36,,,2091719.0,1767084770.1081522,0
0.0,10.5275,,,2090970.0,1767084770.1690218,0
0.0,13.625,,,2090896.5,1767084770.2298913,0
0.0,12.4375,0.27532,33.91,2091307.0,1767084770.2907608,0
0.0,-0.88,,,2090845.0,1767084770.3516304,0
0.0,-16.1925,,,2091352.0,1767084770.4125,0
0.0,-38.4375,,,2092129.0,1767084770.4733696,0
0.0,-51.59,0.271479,33.91,2093307.0,1767084770.534239,0
0.0,-12.995000000000001,,,2094436.5,1767084770.5951087,0
0.0,20.626666666666665,,,2095500.0,1767084770.6559782,0
0.0,27.494999999999997,,,2093620.5,1767084770.716848,0
0.0,21.362499999999997,0.271479,33.91,2090721.5,1767084770.7777174,0
0.0,19.9375,,,2089286.0,1767084770.838587,0
0.0,20.0475,,,2089200.5,1767084770.8994565,0
0.0,8.99,,,2088840.0,1767084770.9603262,0
0.0,-7.7225,0.271479,33.91,2088988.0,1767084771.0211957,0
0.0,-27.262499999999996,,,2089036.0,1767084771.082065,0
0.0,-50.945,,,2089980.5,1767084771.1429348,0
0.0,-35.04,,,2090398.0,1767084771.2038043,0
0.0,8.556666666666667,0.270198,33.91,2091580.0,1767084771.264674,0
0.0,29.875,,,2092759.0,1767084771.3255434,0
0.0,31.3925,,,2092964.5,1767084771.386413,0
0.0,27.442500000000003,,,2090920.0,1767084771.4472826,0
0.0,26.927500000000002,0.271479,33.91,2088655.5,1767084771.5081522,0
0.0,22.57,,,2087313.0,1767084771.5690217,0
0.0,7.4075,,,2086434.0,1767084771.6298914,0
0.0,-10.46,,,2086326.0,1767084771.6907609,0
0.0,-31.225,0.27404,33.91,2085605.5,1767084771.7516305,0
0.0,-54.13666666666666,,,2085482.0,1767084771.8125,0
0.0,-39.745000000000005,,,2086164.0,1767084771.8733695,0
0.0,8.2425,,,2086577.0,1767084771.9342391,0
0.0,32.544999999999995,,,2087513.5,1767084771.9951086,0
0.0,35.9475,0.276601,33.91,2088282.0,1767084772.0559783,0
0.0,35.2525,,,2089496.0,1767084772.1168478,0
0.0,37.0025,,,2090702.0,1767084772.1777174,0
0.0,29.26,,,2089614.0,1767084772.238587,0
0.0,17.7,0.27532,33.91,2085653.0,1767084772.2994566,0
0.0,-2.02,,,2084125.0,1767084772.360326,0
0.0,-16.31,,,2082897.5,1767084772.4211957,0
0.0,-33.5925,,,2082653.0,1767084772.4820652,0
0.0,-58.8275,0.27404,33.91,2082000.0,1767084772.542935,0
0.0,-40.942499999999995,,,2081496.0,1767084772.6038043,0
0.0,9.1375,,,2082078.0,1767084772.6646738,0
0.0,36.457499999999996,,,2082690.0,1767084772.7255435,0
0.0,40.1175,0.271479,33.91,2083299.0,1767084772.786413,0
0.0,39.025,,,2083910.0,1767084772.8472826,0
0.0,38.035,,,2084930.5,1767084772.908152,0
0.0,31.702500000000004,,,2086187.0,1767084772.9690218,0
0.0,22.19333333333333,0.270198,33.91,2086204.5,1767084773.0298913,0
0.0,10.812499999999998,,,2083583.0,1767084773.090761,0
0.0,-2.6425,,,2081717.0,1767084773.1516304,0
0.0,-19.415,,,2080464.0,1767084773.2125,0
0.0,-35.317499999999995,0.270198,33.93,2080077.0,1767084773.2733696,0
0.0,-61.087500000000006,,,2079788.0,1767084773.3342392,0
0.0,-52.724999999999994,,,2079592.0,1767084773.3951087,0
0.0,-3.1950000000000003,,,2079502.0,1767084773.4559782,0
0.0,27.955,0.272759,33.93,2080486.0,1767084773.5168478,0
0.0,37.00666666666667,,,2081299.0,1767084773.5777173,0
0.0,35.370000000000005,,,2081872.5,1767084773.638587,0
0.0,35.905,,,2083000.0,1767084773.6994565,0
0.0,36.0175,0.27404,33.93,2084428.0,1767084773.7603261,0
0.0,29.8825,,,2086204.0,1767084773.8211956,0
0.0,15.659999999999998,,,2086115.5,1767084773.8820653,0
0.0,3.0675,,,2084095.0,1767084773.9429348,0
0.0,-12.075,0.27404,33.93,2082396.0,1767084774.0038044,0
0.0,-25.752499999999998,,,2082069.5,1767084774.064674,0
0.0,-47.5325,,,2082152.0,1767084774.1255436,0
0.0,-58.21666666666667,,,2082115.5,1767084774.186413,0
0.0,-27.27,,,2082853.0,1767084774.2472825,0
0.0,13.2525,0.27404,33.93,2083635.5,1767084774.3081522,0
0.0,28.425,,,2084576.0,1767084774.3690217,0
0.0,26.5425,,,2086155.5,1767084774.4298913,0
0.0,28.875,,,2087374.0,1767084774.4907608,0
0.0,31.27,0.27404,33.93,2089155.5,1767084774.5516305,0
0.0,27.8375,,,2090669.0,1767084774.6125,0
0.0,16.63,,,2090309.5,1767084774.6733696,0
0.0,6.8133333333333335,,,2088852.0,1767084774.734239,0
0.0,-3.59,0.271479,33.93,2088431.5,1767084774.7951088,0
0.0,-18.6925,,,2088690.0,1767084774.8559783,0
0.0,-30.205,,,2089300.0,1767084774.916848,0
0.0,-49.5525,,,2089750.0,1767084774.9777174,0
0.0,-51.807500000000005,0.270198,33.93,2090063.5,1767084775.0385869,0
0.0,-11.665000000000001,,,2091446.0,1767084775.0994565,0
0.0,18.28,,,2092679.0,1767084775.160326,0
0.0,24.209999999999997,,,2094226.0,1767084775.2211957,0
0.0,21.9575,0.271479,33.91,2095895.5,1767084775.2820652,0
0.0,25.25333333333333,,,2097251.0,1767084775.3429348,0
0.0,28.479999999999997,,,2097326.0,1767084775.4038043,0
0.0,22.245,,,2095627.0,1767084775.464674,0
0.0,9.5,0.268918,33.91,2095222.0,1767084775.5255435,0
0.0,-4.2075,,,2095731.0,1767084775.5864131,0
0.0,-15.99,,,2096314.0,1767084775.6472826,0
0.0,-26.4575,,,2096378.0,1767084775.708152,0
0.0,-43.2475,0.27404,33.91,2097019.5,1767084775.7690217,0
0.0,-39.1075,,,2098263.0,1767084775.8298912,0
0.0,-2.5400000000000005,,,2099766.5,1767084775.890761,0
0.0,18.486666666666668,,,2101455.5,1767084775.9516304,0
0.0,20.13,0.27404,33.91,2103194.0,1767084776.0125,0
0.0,15.4725,,,2104124.5,1767084776.0733695,0
0.0,17.585,,,2102713.0,1767084776.1342392,0
0.0,15.0125,,,2101120.5,1767084776.1951087,0
0.0,8.165,0.272759,33.91,2100705.0,1767084776.2559783,0
0.0,-5.3275,,,2100568.0,1767084776.3168478,0
0.0,-17.52,,,2101239.0,1767084776.3777175,0
0.0,-29.2175,,,2101004.5,1767084776.438587,0
0.0,-44.53666666666667,,,2101482.0,1767084776.4994564,0
0.0,-37.525,0.271479,33.91,2102806.5,1767084776.560326,0
0.0,-0.5949999999999993,,,2104095.0,1767084776.6211956,0
0.0,17.715,,,2105524.0,1767084776.6820652,0
0.0,12.844999999999999,,,2106828.0,1767084776.7429347,0
0.0,10.7925,0.268918,33.91,2108139.0,1767084776.8038044,0
0.0,15.602500000000001,,,2107265.0,1767084776.8646739,0
0.0,12.4325,,,2104818.5,1767084776.9255435,0
0.0,4.465,,,2103783.0,1767084776.986413,0
0.0,-10.29,0.270198,33.91,2103498.0,1767084777.0472827,0
0.0,-20.073333333333334,,,2103624.0,1767084777.1081522,0
0.0,-33.515,,,2103620.0,1767084777.1690218,0
0.0,-49.545,,,2104085.0,1767084777.2298913,0
0.0,-26.825000000000003,0.268918,33.91,2104337.0,1767084777.2907608,0
0.0,11.094999999999999,,,2105887.0,1767084777.3516304,0
0.0,23.2375,,,2107259.0,1767084777.4125,0
0.0,20.1625,,,2108324.5,1767084777.4733696,0
0.0,19.34,0.268918,33.91,2109833.0,1767084777.534239,0
0.0,21.57,,,2110005.0,1767084777.5951087,0
0.0,17.93,,,2108041.0,1767084777.6559782,0
0.0,9.3575,,,2105888.0,1767084777.716848,0
0.0,-4.845000000000001,0.272759,33.91,2104838.0,1767084777.7777174,0
0.0,-18.0925,,,2104760.5,1767084777.838587,0
0.0,-33.1525,,,2104647.0,1767084777.8994565,0
0.0,-51.46,,,2104296.5,1767084777.9603262,0
0.0,-39.910000000000004,0.272759,33.91,2104382.0,1767084778.0211957,0
0.0,1.395,,,2105291.5,1767084778.082065,0
0.0,22.47,,,2106359.0,1767084778.1429348,0
0.0,21.332500000000003,,,2106908.0,1767084778.2038043,0
0.0,19.330000000000002,0.272759,33.91,2108475.0,1767084778.264674,0
0.0,21.9175,,,2109493.0,1767084778.3255434,0
0.0,20.617500000000003,,,2109384.0,1767084778.386413,0
0.0,13.96,,,2105947.0,1767084778.4472826,0
0.0,3.4499999999999993,0.272759,33.91,2104087.0,1767084778.5081522,0
0.0,-10.015,,,2102965.5,1767084778.5690217,0
0.0,-22.42,,,2102421.0,1767084778.6298914,0
0.0,-41.995,,,2102064.0,1767084778.6907609,0
0.0,-52.7575,0.272759,33.91,2101522.0,1767084778.7516305,0
0.0,-24.673333333333332,,,2101281.5,1767084778.8125,0
0.0,9.8975,,,2101968.0,1767084778.8733695,0
0.0,23.384999999999998,,,2102790.0,1767084778.9342391,0
0.0,22.4575,,,2103728.0,1767084778.9951086,0
0.0,23.8525,0.268918,33.91,2104878.0,1767084779.0559783,0
0.0,26.255,,,2105551.5,1767084779.1168478,0
0.0,20.0475,,,2102791.0,1767084779.1777174,0
0.0,9.08,,,2099469.5,1767084779.238587,0
0.0,-4.105,0.271479,33.91,2097679.0,1767084779.2994566,0
0.0,-16.197499999999998,,,2096913.0,1767084779.360326,0
0.0,-28.19333333333334,,,2096128.0,1767084779.4211957,0
0.0,-46.135000000000005,,,2095143.0,1767084779.4820652,0
0.0,-49.6675,0.268918,33.91,2095021.0,1767084779.542935,0
0.0,-10.185,,,2094826.0,1767084779.6038043,0
0.0,19.822499999999998,,,2095341.0,1767084779.6646738,0
0.0,24.79,,,2095711.0,1767084779.7255435,0
0.0,22.28,0.271479,33.91,2096458.0,1767084779.786413,0
0.0,26.55,,,2097244.5,1767084779.8472826,0
0.0,28.700000000000003,,,2093689.0,1767084779.908152,0
0.0,23.669999999999998,,,2090692.0,1767084779.9690218,0
0.0,13.39,0.272759,33.91,2089570.0,1767084780.0298913,0
0.0,1.0074999999999998,,,2088797.0,1767084780.090761,0
0.0,-11.8675,,,2088049.5,1767084780.1516304,0
0.0,-27.674999999999997,,,2086833.0,1767084780.2125,0
0.0,-48.25,0.272759,33.91,2086572.0,1767084780.2733696,0
0.0,-33.1575,,,2086636.0,1767084780.3342392,0
0.0,8.955,,,2086911.0,1767084780.3951087,0
0.0,24.7425,,,2087637.0,1767084780.4559782,0
0.0,20.3575,0.271479,33.91,2087456.5,1767084780.5168478,0
0.0,17.663333333333338,,,2082204.0,1767084780.5777173,0
0.0,20.615000000000002,,,2078494.0,1767084780.638587,0
0.0,17.095000000000002,,,2077401.5,1767084780.6994565,0
0.0,9.7575,0.272759,33.91,2075989.0,1767084780.7603261,0
0.0,-6.55,,,2074671.5,1767084780.8211956,0
0.0,-19.835,,,2073320.0,1767084780.8820653,0
0.0,-34.2675,,,2073112.0,1767084780.9429348,0
0.0,-51.74,0.271479,33.91,2072644.0,1767084781.0038044,0
0.0,-30.607499999999998,,,2072946.5,1767084781.064674,0
0.0,11.235,,,2073501.0,1767084781.1255436,0
0.0,25.456666666666667,,,2071132.5,1767084781.186413,0
0.0,17.8125,,,2065387.0,1767084781.2472825,0
0.0,14.4525,0.268918,33.91,2061174.5,1767084781.3081522,0
0.0,17.1125,,,2057878.0,1767084781.3690217,0
0.0,13.69,,,2056241.5,1767084781.4298913,0
0.0,0.6875,,,2053749.0,1767084781.4907608,0
0.0,-12.64,0.268918,33.91,2051950.5,1767084781.5516305,0
0.0,-31.6875,,,2050707.0,1767084781.6125,0
0.0,-48.43750000000001,,,2050055.0,1767084781.6733696,0
0.0,-29.59,,,2050114.0,1767084781.734239,0
0.0,8.1375,0.268918,33.91,2050469.0,1767084781.7951088,0
0.0,24.26,,,2046293.0,1767084781.8559783,0
0.0,16.8175,,,2040524.0,1767084781.916848,0
0.0,12.582500000000001,,,2036930.0,1767084781.9777174,0
0.0,16.54,0.270198,33.91,2034737.0,1767084782.0385869,0
0.0,14.270000000000001,,,2033244.5,1767084782.0994565,0
0.0,1.3699999999999999,,,2031390.0,1767084782.160326,0
0.0,-12.5825,,,2030384.0,1767084782.2211957,0
0.0,-32.0525,0.272759,33.91,2029539.0,1767084782.2820652,0
0.0,-44.45000000000001,,,2029907.0,1767084782.3429348,0
0.0,-18.685000000000002,,,2030629.0,1767084782.4038043,0
0.0,22.475,,,2030912.0,1767084782.464674,0
0.0,33.0975,0.27404,33.91,2028353.0,1767084782.5255435,0
0.0,26.8275,,,2023066.0,1767084782.5864131,0
0.0,24.810000000000002,,,2020377.0,1767084782.6472826,0
0.0,23.8575,,,2019430.0,1767084782.708152,0
0.0,16.7925,0.27404,33.91,2018666.0,1767084782.7690217,0
0.0,2.385,,,2017124.0,1767084782.8298912,0
0.0,-12.682500000000001,,,2017418.5,1767084782.890761,0
0.0,-32.516666666666666,,,2017969.0,1767084782.9516304,0
0.0,-44.3875,0.27404,33.91,2019131.0,1767084783.0125,0
0.0,-13.705000000000002,,,2021287.0,1767084783.0733695,0
0.0,22.905,,,2022933.0,1767084783.1342392,0
0.0,29.815,,,2021252.0,1767084783.1951087,0
0.0,24.4325,0.271479,33.89,2017003.0,1767084783.2559783,0
0.0,24.71,,,2015409.5,1767084783.3168478,0
0.0,23.605,,,2015006.0,1767084783.3777175,0
0.0,15.4125,,,2015189.0,1767084783.438587,0
0.0,1.4433333333333334,,,2014850.0,1767084783.4994564,0
0.0,-9.1425,0.271479,33.89,2014721.0,1767084783.560326,0
0.0,-25.445,,,2015668.0,1767084783.6211956,0
0.0,-43.6225,,,2017411.5,1767084783.6820652,0
0.0,-19.1175,,,2019086.0,1767084783.7429347,0
0.0,21.105,0.270198,33.89,2020682.5,1767084783.8038044,0
0.0,29.23,,,2021171.0,1767084783.8646739,0
0.0,21.810000000000002,,,2017914.5,1767084783.9255435,0
0.0,23.152499999999996,,,2015480.0,1767084783.986413,0
0.0,24.735,0.286845,33.89,2015639.5,1767084784.0472827,0
0.0,20.006666666666664,,,2015994.0,1767084784.1081522,0
0.0,7.82,,,2016229.5,1767084784.1690218,0
0.0,-7.3225,,,2016234.0,1767084784.2298913,0
0.0,-22.0725,0.27532,33.89,2017481.0,1767084784.2907608,0
0.0,-41.8175,,,2019046.0,1767084784.3516304,0
0.0,-28.0575,,,2020881.0,1767084784.4125,0
0.0,11.1275,,,2023289.5,1767084784.4733696,0
0.0,24.159999999999997,0.27404,33.89,2021579.0,1767084784.534239,0
0.0,17.175,,,2017986.0,1767084784.5951087,0
0.0,15.993333333333334,,,2016551.0,1767084784.6559782,0
0.0,19.215,,,2016662.5,1767084784.716848,0
0.0,18.27,0.27404,33.89,2016934.0,1767084784.7777174,0
0.0,6.6225000000000005,,,2016367.5,1767084784.838587,0
0.0,-9.5275,,,2017136.0,1767084784.8994565,0
0.0,-21.16,,,2018399.5,1767084784.9603262,0
0.0,-40.475,0.27404,33.89,2019937.0,1767084785.0211957,0
0.0,-31.792500000000004,,,2021615.0,1767084785.082065,0
0.0,10.024999999999999,,,2023687.0,1767084785.1429348,0
0.0,23.75,,,2021968.5,1767084785.2038043,0
0.0,16.23,0.272759,33.91,2018714.0,1767084785.264674,0
0.0,11.067499999999999,,,2016606.0,1767084785.3255434,0
0.0,12.879999999999999,,,2016179.0,1767084785.386413,0
0.0,10.5975,,,2017805.0,1767084785.4472826,0
0.0,-2.0875,0.271479,33.91,2020407.0,1767084785.5081522,0
0.0,-15.75,,,2021610.0,1767084785.5690217,0
0.0,-31.2275,,,2022321.0,1767084785.6298914,0
0.0,-47.07749999999999,,,2023087.0,1767084785.6907609,0
0.0,-25.9775,0.271479,33.91,2023805.0,1767084785.7516305,0
0.0,10.146666666666667,,,2025212.0,1767084785.8125,0
0.0,23.042499999999997,,,2025060.0,1767084785.8733695,0
0.0,16.4225,,,2021368.5,1767084785.9342391,0
0.0,13.045000000000002,,,2018158.0,1767084785.9951086,0
0.0,16.335,0.271479,33.91,2016952.0,1767084786.0559783,0
0.0,9.847499999999998,,,2016897.0,1767084786.1168478,0
0.0,-5.1175,,,2016343.0,1767084786.1777174,0
0.0,-16.9925,,,2015865.0,1767084786.238587,0
0.0,-30.935,0.276601,33.91,2016278.5,1767084786.2994566,0
0.0,-45.985,,,2018092.0,1767084786.360326,0
0.0,-25.466666666666665,,,2019560.0,1767084786.4211957,0
0.0,11.055,,,2021121.5,1767084786.4820652,0
0.0,28.019999999999996,0.27404,33.91,2023280.0,1767084786.542935,0
0.0,24.125,,,2020504.0,1767084786.6038043,0
0.0,22.2575,,,2017181.0,1767084786.6646738,0
0.0,24.24,,,2015961.0,1767084786.7255435,0
0.0,20.79,0.27404,33.91,2015989.0,1767084786.786413,0
0.0,4.362500000000001,,,2016034.5,1767084786.8472826,0
0.0,-16.965,,,2015787.0,1767084786.908152,0
0.0,-37.9075,,,2015712.0,1767084786.9690218,0
0.0,-57.67666666666667,0.27404,33.91,2016641.0,1767084787.0298913,0
0.0,-41.964999999999996,,,2017994.5,1767084787.090761,0
0.0,7.1275,,,2019482.0,1767084787.1516304,0
0.0,30.457500000000003,,,2021405.5,1767084787.2125,0
0.0,26.192500000000003,0.272759,33.91,2022867.0,1767084787.2733696,0
0.0,21.6525,,,2022212.5,1767084787.3342392,0
0.0,21.84,,,2018870.0,1767084787.3951087,0
0.0,17.192500000000003,,,2017186.5,1767084787.4559782,0
0.0,6.987499999999999,0.271479,33.91,2016939.0,1767084787.5168478,0
0.0,-6.6066666666666665,,,2017317.5,1767084787.5777173,0
0.0,-17.177500000000002,,,2016519.0,1767084787.638587,0
0.0,-34.105000000000004,,,2016811.0,1767084787.6994565,0
0.0,-48.5725,0.270198,33.91,2018368.0,1767084787.7603261,0
0.0,-21.855,,,2019728.0,1767084787.8211956,0
0.0,15.627500000000001,,,2021253.0,1767084787.8820653,0
0.0,26.0425,,,2022832.0,1767084787.9429348,0
0.0,18.990000000000002,0.270198,33.91,2023247.5,1767084788.0038044,0
0.0,19.384999999999998,,,2019615.0,1767084788.064674,0
0.0,20.21,,,2016688.0,1767084788.1255436,0
0.0,14.613333333333332,,,2015335.0,1767084788.186413,0
0.0,2.8724999999999996,,,2015172.5,1767084788.2472825,0
0.0,-9.305,0.272759,33.91,2014703.0,1767084788.3081522,0
0.0,-21.082500000000003,,,2014195.5,1767084788.3690217,0
0.0,-41.2275,,,2014590.0,1767084788.4298913,0
0.0,-34.305,,,2015683.5,1767084788.4907608,0
0.0,4.67,0.27404,33.91,2016830.0,1767084788.5516305,0
0.0,24.495,,,2018377.5,1767084788.6125,0
0.0,19.6375,,,2020004.0,1767084788.6733696,0
0.0,16.74,,,2019010.5,1767084788.734239,0
0.0,21.737499999999997,0.272759,33.91,2015130.0,1767084788.7951088,0
0.0,18.4525,,,2012330.0,1767084788.8559783,0
0.0,7.9350000000000005,,,2010752.0,1767084788.916848,0
0.0,-8.655000000000001,,,2010709.0,1767084788.9777174,0
0.0,-21.82,0.272759,33.91,2010239.0,1767084789.0385869,0
0.0,-41.85,,,2009841.0,1767084789.0994565,0
0.0,-51.455,,,2010521.0,1767084789.160326,0
0.0,-15.599999999999998,,,2011813.0,1767084789.2211957,0
0.0,19.4725,0.270198,33.91,2013566.5,1767084789.2820652,0
0.0,27.2,,,2015300.0,1767084789.3429348,0
0.0,22.36,,,2016993.5,1767084789.4038043,0
0.0,24.1,,,2016713.0,1767084789.464674,0
0.0,25.0775,0.271479,33.91,2013132.0,1767084789.5255435,0
0.0,19.005000000000003,,,2010437.0,1767084789.5864131,0
0.0,5.46,,,2009878.0,1767084789.6472826,0
0.0,-10.725,,,2009474.0,1767084789.708152,0
0.0,-26.7925,0.271479,33.91,2009443.0,1767084789.7690217,0
0.0,-47.93,,,2009207.0,1767084789.8298912,0
0.0,-39.727500000000006,,,2010129.0,1767084789.890761,0
0.0,-1.6733333333333331,,,2011460.0,1767084789.9516304,0
0.0,23.4125,0.270198,33.91,2013097.0,1767084790.0125,0
0.0,29.380000000000003,,,2014703.0,1767084790.0733695,0
0.0,25.6725,,,2016857.5,1767084790.1342392,0
0.0,30.8075,,,2019193.0,1767084790.1951087,0
0.0,27.882500000000004,0.27532,33.89,2017201.0,1767084790.2559783,0
0.0,19.349999999999998,,,2014512.5,1767084790.3168478,0
0.0,5.482499999999999,,,2012957.0,1767084790.3777175,0
0.0,-9.754999999999999,,,2013075.5,1767084790.438587,0
0.0,-21.776666666666667,,,2013795.0,1767084790.4994564,0
0.0,-40.8975,0.27532,33.89,2013388.5,1767084790.560326,0
0.0,-50.120000000000005,,,2014474.5,1767084790.6211956,0
0.0,-12.882499999999999,,,2015774.0,1767084790.6820652,0
0.0,21.0575,,,2017657.5,1767084790.7429347,0
0.0,29.1175,0.27532,33.89,2019661.0,1767084790.8038044,0
0.0,24.6325,,,2021927.5,1767084790.8646739,0
0.0,27.455000000000002,,,2024295.0,1767084790.9255435,0
0.0,28.4075,,,2026334.5,1767084790.986413,0
0.0,22.520000000000003,0.27532,33.89,2025362.0,1767084791.0472827,0
0.0,12.676666666666668,,,2022960.0,1767084791.1081522,0
0.0,0.72,,,2022906.0,1767084791.1690218,0
0.0,-13.1825,,,2023914.5,1767084791.2298913,0
0.0,-28.4475,0.27532,33.87,2024697.0,1767084791.2907608,0
0.0,-48.457499999999996,,,2025265.5,1767084791.3516304,0
0.0,-39.6225,,,2026494.0,1767084791.4125,0
0.0,3.7275,,,2028514.5,1767084791.4733696,0
0.0,26.36,0.271479,33.87,2031270.0,1767084791.534239,0
0.0,27.345000000000002,,,2033200.0,1767084791.5951087,0
0.0,24.790000000000003,,,2035764.0,1767084791.6559782,0
0.0,27.6575,,,2036974.0,1767084791.716848,0
0.0,27.0975,0.271479,33.87,2035189.0,1767084791.7777174,0
0.0,17.6875,,,2034037.0,1767084791.838587,0
0.0,5.9425,,,2034649.5,1767084791.8994565,0
0.0,-6.645,,,2035653.0,1767084791.9603262,0
0.0,-19.4575,0.270198,33.87,2036453.0,1767084792.0211957,0
0.0,-31.647499999999997,,,2037296.0,1767084792.082065,0
0.0,-52.535,,,2038578.0,1767084792.1429348,0
0.0,-48.842499999999994,,,2040342.0,1767084792.2038043,0
0.0,-13.13,0.272759,33.91,2042640.5,1767084792.264674,0
0.0,9.48,,,2044565.0,1767084792.3255434,0
0.0,11.54,,,2046331.5,1767084792.386413,0
0.0,16.315,,,2045406.0,1767084792.4472826,0
0.0,32.235,0.27404,33.91,2042966.0,1767084792.5081522,0
0.0,32.56,,,2041878.0,1767084792.5690217,0
0.0,21.1025,,,2042383.5,1767084792.6298914,0
0.0,3.5325,,,2042737.0,1767084792.6907609,0
0.0,-8.6575,0.272759,33.91,2043007.0,1767084792.7516305,0
0.0,-20.516666666666666,,,2043582.0,1767084792.8125,0
0.0,-38.5875,,,2045489.0,1767084792.8733695,0
0.0,-36.18750000000001,,,2046865.0,1767084792.9342391,0
0.0,-1.2725,,,2048526.0,1767084792.9951086,0
0.0,16.252499999999998,0.27404,33.91,2050565.0,1767084793.0559783,0
0.0,11.754999999999999,,,2051504.0,1767084793.1168478,0
0.0,8.442499999999999,,,2049118.0,1767084793.1777174,0
0.0,12.7325,,,2047004.5,1767084793.238587,0
0.0,10.5175,0.27404,33.89,2046329.5,1767084793.2994566,0
0.0,-1.0724999999999998,,,2046537.0,1767084793.360326,0
0.0,-16.616666666666664,,,2046559.0,1767084793.4211957,0
0.0,-27.2975,,,2046591.0,1767084793.4820652,0
0.0,-45.0925,0.271479,33.89,2047448.5,1767084793.542935,0
0.0,-48.055,,,2048869.0,1767084793.6038043,0
0.0,-11.18,,,2050415.5,1767084793.6646738,0
0.0,18.935000000000002,,,2052085.0,1767084793.7255435,0
0.0,22.002499999999998,0.270198,33.89,2053935.0,1767084793.786413,0
0.0,18.1025,,,2054678.0,1767084793.8472826,0
0.0,20.2375,,,2051691.0,1767084793.908152,0
0.0,16.72,,,2049334.0,1767084793.9690218,0
0.0,10.686666666666667,0.270198,33.89,2049396.0,1767084794.0298913,0
0.0,-2.9799999999999995,,,2049859.5,1767084794.090761,0
0.0,-19.255,,,2049990.0,1767084794.1516304,0
0.0,-35.16,,,2050182.0,1767084794.2125,0
0.0,-53.095,0.271479,33.89,2051272.0,1767084794.2733696,0
0.0,-33.0625,,,2052452.5,1767084794.3342392,0
0.0,8.462499999999999,,,2054012.0,1767084794.3951087,0
0.0,25.507499999999997,,,2055235.0,1767084794.4559782,0
0.0,22.9225,0.271479,33.89,2056422.0,1767084794.5168478,0
0.0,23.003333333333334,,,2058412.0,1767084794.5777173,0
0.0,25.17,,,2059084.0,1767084794.638587,0
0.0,20.8875,,,2056415.0,1767084794.6994565,0
0.0,12.434999999999999,0.27404,33.89,2055304.5,1767084794.7603261,0
0.0,-3.0375,,,2055804.0,1767084794.8211956,0
0.0,-17.549999999999997,,,2056470.5,1767084794.8820653,0
0.0,-36.425,,,2056750.0,1767084794.9429348,0
0.0,-55.0275,0.272759,33.89,2057883.5,1767084795.0038044,0
0.0,-30.5,,,2059244.0,1767084795.064674,0
0.0,12.592500000000001,,,2060694.0,1767084795.1255436,0
0.0,28.623333333333335,,,2062601.0,1767084795.186413,0
0.0,28.8375,,,2064407.0,1767084795.2472825,0
0.0,27.59,0.27404,33.89,2065795.0,1767084795.3081522,0
0.0,32.114999999999995,,,2063878.0,1767084795.3690217,0
0.0,26.6325,,,2062267.0,1767084795.4298913,0
0.0,16.634999999999998,,,2062323.0,1767084795.4907608,0
0.0,2.075,0.27404,33.89,2063261.0,1767084795.5516305,0
0.0,-12.4,,,2063605.5,1767084795.6125,0
0.0,-28.502500000000005,,,2063791.0,1767084795.6733696,0
0.0,-48.03666666666666,,,2064984.0,1767084795.734239,0
0.0,-47.41,0.27404,33.89,2066364.0,1767084795.7951088,0
0.0,-7.812500000000001,,,2068164.0,1767084795.8559783,0
0.0,21.22,,,2069547.0,1767084795.916848,0
0.0,23.6825,,,2071138.0,1767084795.9777174,0
0.0,19.77,0.271479,33.89,2068426.5,1767084796.0385869,0
0.0,22.765,,,2066825.0,1767084796.0994565,0
0.0,21.6275,,,2066243.5,1767084796.160326,0
0.0,14.795,,,2066512.0,1767084796.2211957,0
0.0,0.1675000000000002,0.270198,33.87,2066502.5,1767084796.2820652,0
0.0,-10.703333333333333,,,2066434.0,1767084796.3429348,0
0.0,-26.247500000000002,,,2067470.5,1767084796.4038043,0
0.0,-43.205000000000005,,,2068491.0,1767084796.464674,0
0.0,-20.5225,0.270198,33.87,2070000.0,1767084796.5255435,0
0.0,16.17,,,2071863.5,1767084796.5864131,0
0.0,24.747500000000002,,,2071859.0,1767084796.6472826,0
0.0,16.9525,,,2068824.5,1767084796.708152,0
0.0,16.45,0.268918,33.87,2067152.0,1767084796.7690217,0
0.0,18.0025,,,2066467.5,1767084796.8298912,0
0.0,9.825,,,2066616.0,1767084796.890761,0
0.0,-2.453333333333333,,,2066717.0,1767084796.9516304,0
0.0,-13.32,0.271479,33.87,2066685.0,1767084797.0125,0
0.0,-30.0375,,,2066947.5,1767084797.0733695,0
0.0,-47.644999999999996,,,2068140.0,1767084797.1342392,0
0.0,-22.49,,,2069609.0,1767084797.1951087,0
0.0,14.7525,0.271479,33.87,2071019.0,1767084797.2559783,0
0.0,25.205000000000002,,,2072959.0,1767084797.3168478,0
0.0,21.055,,,2073066.0,1767084797.3777175,0
0.0,22.442500000000003,,,2070255.5,1767084797.438587,0
0.0,22.333333333333332,,,2069082.0,1767084797.4994564,0
0.0,17.675,0.27404,33.87,2068955.0,1767084797.560326,0
0.0,2.125,,,2069540.5,1767084797.6211956,0
0.0,-12.2325,,,2069170.0,1767084797.6820652,0
0.0,-26.78,,,2069773.5,1767084797.7429347,0
0.0,-46.245000000000005,0.285565,33.87,2071403.0,1767084797.8038044,0
0.0,-25.2775,,,2072519.5,1767084797.8646739,0
0.0,13.91,,,2074072.0,1767084797.9255435,0
0.0,27.715000000000003,,,2075834.5,1767084797.986413,0
0.0,26.875,0.272759,33.87,2078063.0,1767084798.0472827,0
0.0,26.786666666666665,,,2078499.0,1767084798.1081522,0
0.0,26.3975,,,2076156.0,1767084798.1690218,0
0.0,21.0575,,,2075240.0,1767084798.2298913,0
0.0,10.74,0.270198,33.91,2075369.5,1767084798.2907608,0
0.0,-5.2175,,,2076057.0,1767084798.3516304,0
0.0,-16.64,,,2076254.0,1767084798.4125,0
0.0,-35.425,,,2076911.0,1767084798.4733696,0
0.0,-42.81,0.270198,33.91,2078163.0,1767084798.534239,0
0.0,-9.205,,,2080412.0,1767084798.5951087,0
0.0,20.63,,,2081978.0,1767084798.6559782,0
0.0,28.8525,,,2084060.0,1767084798.716848,0
0.0,24.28,0.271479,33.91,2086059.0,1767084798.7777174,0
0.0,25.7775,,,2086442.5,1767084798.838587,0
0.0,27.275,,,2084962.0,1767084798.8994565,0
0.0,19.57,,,2084832.5,1767084798.9603262,0
0.0,9.005,0.268918,33.91,2085523.0,1767084799.0211957,0
0.0,-4.12,,,2086670.0,1767084799.082065,0
0.0,-16.9475,,,2087223.5,1767084799.1429348,0
0.0,-29.347500000000004,,,2088246.0,1767084799.2038043,0
0.0,-44.910000000000004,0.27404,33.89,2089694.5,1767084799.264674,0
0.0,-36.595,,,2091169.0,1767084799.3255434,0
0.0,1.8949999999999998,,,2092878.0,1767084799.386413,0
0.0,23.03,,,2094799.0,1767084799.4472826,0
0.0,21.97,0.27404,33.89,2094420.5,1767084799.5081522,0
0.0,19.5175,,,2092794.5,1767084799.5690217,0
0.0,23.357499999999995,,,2092733.0,1767084799.6298914,0
0.0,19.630000000000003,,,2092966.5,1767084799.6907609,0
0.0,11.0675,0.272759,33.89,2093201.0,1767084799.7516305,0
0.0,-0.9033333333333334,,,2093397.5,1767084799.8125,0
0.0,-12.5025,,,2094312.0,1767084799.8733695,0
0.0,-25.2975,,,2095135.5,1767084799.9342391,0
0.0,-40.93,,,2096479.0,1767084799.9951086,0
0.0,-37.0625,0.272759,33.89,2098162.0,1767084800.0559783,0
0.0,-0.5974999999999997,,,2099698.5,1767084800.1168478,0
0.0,21.465,,,2098121.0,1767084800.1777174,0
0.0,17.2175,,,2095801.0,1767084800.238587,0
0.0,13.215,0.272759,33.91,2094863.0,1767084800.2994566,0
0.0,16.71,,,2095147.0,1767084800.360326,0
0.0,13.61,,,2095246.0,1767084800.4211957,0
0.0,5.9975000000000005,,,2095351.0,1767084800.4820652,0
0.0,-5.905,0.270198,33.91,2095821.0,1767084800.542935,0
0.0,-17.4775,,,2097180.0,1767084800.6038043,0
0.0,-37.0225,,,2097989.5,1767084800.6646738,0
0.0,-36.7825,,,2099427.0,1767084800.7255435,0
0.0,-1.2275,0.270198,33.91,2099086.5,1767084800.786413,0
0.0,19.902500000000003,,,2096536.0,1767084800.8472826,0
0.0,16.0875,,,2092137.5,1767084800.908152,0
0.0,11.7625,,,2089961.0,1767084800.9690218,0
0.0,14.713333333333333,0.270198,33.91,2088710.0,1767084801.0298913,0
0.0,13.99,,,2088243.0,1767084801.090761,0
0.0,4.9325,,,2087404.0,1767084801.1516304,0
0.0,-11.205,,,2084434.5,1767084801.2125,0
0.0,-23.02,0.272759,33.87,2081104.0,1767084801.2733696,0
0.0,-42.135,,,2077781.0,1767084801.3342392,0
0.0,-46.9475,,,2075406.0,1767084801.3951087,0
0.0,-8.339999999999998,,,2073703.0,1767084801.4559782,0
0.0,20.435000000000002,0.272759,33.87,2073459.0,1767084801.5168478,0
0.0,25.400000000000002,,,2071464.5,1767084801.5777173,0
0.0,20.315,,,2068708.0,1767084801.638587,0
0.0,22.0125,,,2068556.0,1767084801.6994565,0
0.0,21.355,0.27404,33.87,2069014.0,1767084801.7603261,0
0.0,15.53,,,2069151.0,1767084801.8211956,0
0.0,1.2075000000000005,,,2069106.5,1767084801.8820653,0
0.0,-14.079999999999998,,,2069164.0,1767084801.9429348,0
0.0,-30.7575,0.271479,33.87,2070318.5,1767084802.0038044,0
0.0,-51.002500000000005,,,2072001.0,1767084802.064674,0
0.0,-35.6925,,,2073199.0,1767084802.1255436,0
0.0,2.61,,,2074763.5,1767084802.186413,0
0.0,23.357499999999998,,,2075709.0,1767084802.2472825,0
0.0,25.4225,0.271479,33.87,2073628.5,1767084802.3081522,0
0.0,23.8525,,,2071104.0,1767084802.3690217,0
0.0,27.075000000000003,,,2070329.0,1767084802.4298913,0
0.0,21.57,,,2070590.0,1767084802.4907608,0
0.0,12.5025,0.272759,33.87,2070175.0,1767084802.5516305,0
0.0,-3.1275,,,2069948.0,1767084802.6125,0
0.0,-15.0325,,,2070091.0,1767084802.6733696,0
0.0,-28.45,,,2070716.0,1767084802.734239,0
0.0,-45.215,0.268918,33.87,2071820.5,1767084802.7951088,0
0.0,-32.5225,,,2072854.0,1767084802.8559783,0
0.0,5.45,,,2074235.5,1767084802.916848,0
0.0,24.060000000000002,,,2073332.0,1767084802.9777174,0
0.0,22.645,0.270198,33.87,2070217.0,1767084803.0385869,0
0.0,22.770000000000003,,,2068681.0,1767084803.0994565,0
0.0,24.605000000000004,,,2068213.0,1767084803.160326,0
0.0,19.9725,,,2067697.5,1767084803.2211957,0
0.0,8.93,0.270198,33.84,2067467.0,1767084803.2820652,0
0.0,-4.976666666666667,,,2067494.0,1767084803.3429348,0
0.0,-14.6225,,,2068282.0,1767084803.4038043,0
0.0,-32.93,,,2068942.5,1767084803.464674,0
0.0,-45.60249999999999,0.268918,33.84,2070348.0,1767084803.5255435,0
0.0,-17.4025,,,2070038.0,1767084803.5864131,0
0.0,13.7125,,,2066795.0,1767084803.6472826,0
0.0,19.325,,,2063570.5,1767084803.708152,0
0.0,14.535,0.272759,33.84,2061930.0,1767084803.7690217,0
0.0,18.564999999999998,,,2061723.5,1767084803.8298912,0
0.0,19.185000000000002,,,2061057.0,1767084803.890761,0
0.0,14.266666666666666,,,2059832.5,1767084803.9516304,0
0.0,1.6075000000000002,0.27404,33.84,2059661.0,1767084804.0125,0
0.0,-10.627500000000001,,,2060172.0,1767084804.0733695,0
0.0,-26.555,,,2060698.0,1767084804.1342392,0
0.0,-40.99,,,2061793.0,1767084804.1951087,0
0.0,-16.697499999999998,0.272759,33.84,2061309.0,1767084804.2559783,0
0.0,17.61,,,2056786.0,1767084804.3168478,0
0.0,20.29,,,2053686.0,1767084804.3777175,0
0.0,12.765,,,2052017.5,1767084804.438587,0
0.0,12.493333333333332,,,2050944.0,1767084804.4994564,0
0.0,13.81,0.271479,33.84,2050178.5,1767084804.560326,0
0.0,8.2225,,,2049525.0,1767084804.6211956,0
0.0,-6.085,,,2049724.0,1767084804.6820652,0
0.0,-19.65,,,2050091.0,1767084804.7429347,0
0.0,-36.605,0.272759,33.84,2051246.0,1767084804.8038044,0
0.0,-35.0175,,,2052298.5,1767084804.8646739,0
0.0,9.5225,,,2051977.0,1767084804.9255435,0
0.0,37.3175,,,2047972.5,1767084804.986413,0
0.0,22.375,0.268918,33.84,2045535.0,1767084805.0472827,0
0.0,4.836666666666667,,,2044359.0,1767084805.1081522,0
0.0,5.485,,,2043896.0,1767084805.1690218,0
0.0,9.0225,,,2043568.0,1767084805.2298913,0
0.0,0.77,0.268918,33.87,2042888.0,1767084805.2907608,0
0.0,-10.8925,,,2043306.0,1767084805.3516304,0
0.0,-21.625,,,2044105.0,1767084805.4125,0
0.0,-40.7875,,,2044878.0,1767084805.4733696,0
0.0,-24.6175,0.268918,33.87,2045458.0,1767084805.534239,0
0.0,20.6725,,,2047045.5,1767084805.5951087,0
0.0,41.550000000000004,,,2048149.0,1767084805.6559782,0
0.0,43.38999999999999,,,2046528.0,1767084805.716848,0
0.0,34.345000000000006,0.270198,33.87,2043582.0,1767084805.7777174,0
0.0,21.16,,,2042538.0,1767084805.838587,0
0.0,0.7549999999999999,,,2042168.0,1767084805.8994565,0
0.0,-26.212500000000002,,,2041715.0,1767084805.9603262,0
0.0,-44.9175,0.284284,33.87,2041661.0,1767084806.0211957,0
0.0,-48.7875,,,2041962.0,1767084806.082065,0
0.0,-57.94,,,2043219.5,1767084806.1429348,0
0.0,-40.012499999999996,,,2044724.0,1767084806.2038043,0
0.0,3.0766666666666667,0.270198,33.87,2045956.5,1767084806.264674,0
0.0,29.035,,,2047646.0,1767084806.3255434,0
0.0,33.505,,,2049132.0,1767084806.386413,0
0.0,30.6375,,,2048506.0,1767084806.4472826,0
0.0,32.715,0.271479,33.87,2046339.0,1767084806.5081522,0
0.0,29.442500000000003,,,2045313.0,1767084806.5690217,0
0.0,21.405,,,2045512.0,1767084806.6298914,0
0.0,5.8375,,,2046106.0,1767084806.6907609,0
0.0,-9.1725,0.272759,33.87,2046227.5,1767084806.7516305,0
0.0,-23.650000000000002,,,2046687.0,1767084806.8125,0
0.0,-44.262499999999996,,,2048051.5,1767084806.8733695,0
0.0,-38.18999999999999,,,2049547.0,1767084806.9342391,0
0.0,2.7125000000000004,,,2051311.5,1767084806.9951086,0
0.0,27.115,0.271479,33.87,2053254.0,1767084807.0559783,0
0.0,29.952499999999997,,,2054796.0,1767084807.1168478,0
0.0,26.8725,,,2055099.0,1767084807.1777174,0
0.0,30.025000000000002,,,2053070.5,1767084807.238587,0
0.0,25.4625,0.271479,33.84,2052770.0,1767084807.2994566,0
0.0,16.847499999999997,,,2053408.0,1767084807.360326,0
0.0,4.133333333333333,,,2054168.5,1767084807.4211957,0
0.0,-7.9575,,,2054691.0,1767084807.4820652,0
0.0,-20.310000000000002,0.268918,33.84,2055973.0,1767084807.542935,0
0.0,-39.565,,,2057251.0,1767084807.6038043,0
0.0,-41.2175,,,2058988.0,1767084807.6646738,0
0.0,-5.295,,,2060910.0,1767084807.7255435,0
0.0,20.9525,0.270198,33.84,2062756.0,1767084807.786413,0
0.0,21.195,,,2062514.0,1767084807.8472826,0
0.0,17.729999999999997,,,2060542.5,1767084807.908152,0
0.0,22.200000000000003,,,2059696.0,1767084807.9690218,0
0.0,21.05333333333333,0.270198,33.84,2060147.0,1767084808.0298913,0
0.0,15.4525,,,2060902.0,1767084808.090761,0
0.0,2.7225,,,2061024.0,1767084808.1516304,0
0.0,-9.7125,,,2061916.0,1767084808.2125,0
0.0,-21.9375,0.270198,33.87,2063343.0,1767084808.2733696,0
0.0,-37.6975,,,2064731.0,1767084808.3342392,0
0.0,-28.7575,,,2066373.5,1767084808.3951087,0
0.0,8.11,,,2068196.0,1767084808.4559782,0
0.0,22.985,0.271479,33.87,2069104.0,1767084808.5168478,0
0.0,16.643333333333334,,,2067348.0,1767084808.5777173,0
0.0,12.1875,,,2065424.0,1767084808.638587,0
0.0,14.145,,,2064863.0,1767084808.6994565,0
0.0,12.135000000000002,0.271479,33.87,2065234.0,1767084808.7603261,0
0.0,3.4675000000000002,,,2065537.5,1767084808.8211956,0
0.0,-10.685,,,2065949.0,1767084808.8820653,0
0.0,-23.552500000000002,,,2066881.5,1767084808.9429348,0
0.0,-40.785000000000004,0.271479,33.87,2068082.0,1767084809.0038044,0
0.0,-35.925,,,2069584.0,1767084809.064674,0
0.0,1.6425,,,2071501.0,1767084809.1255436,0
0.0,21.366666666666664,,,2072713.0,1767084809.186413,0
0.0,20.702500000000004,,,2072649.0,1767084809.2472825,0
0.0,15.375,0.268918,33.84,2070158.0,1767084809.3081522,0
0.0,17.4375,,,2068693.0,1767084809.3690217,0
0.0,14.522499999999999,,,2068203.0,1767084809.4298913,0
0.0,6.335000000000001,,,2068223.0,1767084809.4907608,0
0.0,-9.54,0.267637,33.84,2068335.0,1767084809.5516305,0
0.0,-22.2325,,,2068613.0,1767084809.6125,0
0.0,-39.4875,,,2069382.5,1767084809.6733696,0
0.0,-49.66,,,2070549.0,1767084809.734239,0
0.0,-25.5375,0.267637,33.84,2072248.5,1767084809.7951088,0
0.0,10.127500000000001,,,2073594.0,1767084809.8559783,0
0.0,20.4875,,,2075491.5,1767084809.916848,0
0.0,17.485,,,2075552.0,1767084809.9777174,0
0.0,20.502499999999998,0.266356,33.84,2073511.5,1767084810.0385869,0
0.0,21.7225,,,2071633.0,1767084810.0994565,0
0.0,15.055,,,2071909.0,1767084810.160326,0
0.0,0.9824999999999999,,,2071893.0,1767084810.2211957,0
0.0,-14.115,0.267637,33.87,2072005.0,1767084810.2820652,0
0.0,-25.849999999999998,,,2072003.0,1767084810.3429348,0
0.0,-43.57,,,2072962.5,1767084810.4038043,0
0.0,-35.9975,,,2074558.0,1767084810.464674,0
0.0,3.5599999999999996,0.270198,33.87,2075895.0,1767084810.5255435,0
0.0,25.985,,,2077526.0,1767084810.5864131,0
0.0,24.154999999999998,,,2078897.5,1767084810.6472826,0
0.0,21.3275,,,2078388.0,1767084810.708152,0
0.0,24.5,0.268918,33.87,2076117.0,1767084810.7690217,0
0.0,19.645,,,2075128.0,1767084810.8298912,0
0.0,8.63,,,2075320.5,1767084810.890761,0
0.0,-2.9599999999999995,,,2075712.5,1767084810.9516304,0
0.0,-12.9925,0.270198,33.87,2075703.0,1767084811.0125,0
0.0,-31.102500000000003,,,2076187.5,1767084811.0733695,0
0.0,-47.4775,,,2077350.0,1767084811.1342392,0
0.0,-25.409999999999997,,,2078641.5,1767084811.1951087,0
0.0,11.55,0.270198,33.87,2080416.0,1767084811.2559783,0
0.0,22.7025,,,2081638.5,1767084811.3168478,0
0.0,16.61,,,2082052.0,1767084811.3777175,0
0.0,18.22,,,2079992.5,1767084811.438587,0
0.0,21.793333333333333,,,2078889.0,1767084811.4994564,0
0.0,19.487499999999997,0.266356,33.87,2078603.0,1767084811.560326,0
0.0,10.642500000000002,,,2079507.0,1767084811.6211956,0
0.0,-5.7575,,,2079571.5,1767084811.6820652,0
0.0,-17.8375,,,2079348.0,1767084811.7429347,0
0.0,-35.894999999999996,0.266356,33.87,2080495.0,1767084811.8038044,0
0.0,-41.120000000000005,,,2081760.0,1767084811.8646739,0
0.0,-6.2825,,,2082848.0,1767084811.9255435,0
0.0,21.7025,,,2084194.0,1767084811.986413,0
0.0,21.134999999999998,0.266356,33.87,2084177.5,1767084812.0472827,0
0.0,14.793333333333335,,,2081584.0,1767084812.1081522,0
0.0,17.57,,,2080386.5,1767084812.1690218,0
0.0,17.3475,,,2080221.0,1767084812.2298913,0
0.0,12.24,0.268918,33.87,2080799.0,1767084812.2907608,0
0.0,-0.18750000000000022,,,2080577.0,1767084812.3516304,0
0.0,-12.642500000000002,,,2080699.5,1767084812.4125,0
0.0,-26.7425,,,2081177.0,1767084812.4733696,0
0.0,-41.635000000000005,0.268918,33.87,2082626.0,1767084812.534239,0
0.0,-21.11,,,2084144.5,1767084812.5951087,0
0.0,11.339999999999998,,,2084207.0,1767084812.6559782,0
0.0,22.25,,,2081517.0,1767084812.716848,0
0.0,16.3575,0.270198,33.87,2079251.0,1767084812.7777174,0
0.0,12.9675,,,2078776.5,1767084812.838587,0
0.0,15.84,,,2078517.0,1767084812.8994565,0
0.0,11.2675,,,2078279.5,1767084812.9603262,0
0.0,-0.38249999999999973,0.270198,33.87,2078096.0,1767084813.0211957,0
0.0,-12.629999999999999,,,2078575.5,1767084813.082065,0
0.0,-29.847499999999997,,,2079488.0,1767084813.1429348,0
0.0,-37.99250000000001,,,2080234.0,1767084813.2038043,0
0.0,-10.923333333333332,0.270198,33.84,2081432.0,1767084813.264674,0
0.0,17.1475,,,2079809.5,1767084813.3255434,0
0.0,19.7925,,,2076120.0,1767084813.386413,0
0.0,11.75,,,2074533.0,1767084813.4472826,0
0.0,12.5125,0.267637,33.84,2073605.5,1767084813.5081522,0
0.0,14.742500000000001,,,2073174.0,1767084813.5690217,0
0.0,4.27,,,2072666.0,1767084813.6298914,0
0.0,-10.6025,,,2072510.0,1767084813.6907609,0
0.0,-27.544999999999998,0.266356,33.84,2073143.5,1767084813.7516305,0
0.0,-43.42666666666667,,,2073961.0,1767084813.8125,0
0.0,-31.990000000000002,,,2074825.0,1767084813.8733695,0
0.0,7.08,,,2075899.0,1767084813.9342391,0
0.0,24.415,,,2072961.5,1767084813.9951086,0
0.0,19.4375,0.266356,33.84,2069206.0,1767084814.0559783,0
0.0,13.700000000000001,,,2067588.0,1767084814.1168478,0
0.0,15.73,,,2067116.0,1767084814.1777174,0
0.0,9.3875,,,2066607.0,1767084814.238587,0
0.0,-5.335,0.281723,33.87,2065938.5,1767084814.2994566,0
0.0,-21.6475,,,2066131.0,1767084814.360326,0
0.0,-40.69,,,2066597.5,1767084814.4211957,0
0.0,-46.44,,,2067034.0,1767084814.4820652,0
0.0,-11.535,0.268918,33.87,2068085.0,1767084814.542935,0
0.0,20.595,,,2068807.0,1767084814.6038043,0
0.0,24.6325,,,2068539.0,1767084814.6646738,0
0.0,20.11,,,2065231.0,1767084814.7255435,0
0.0,20.9525,0.267637,33.87,2063110.0,1767084814.786413,0
0.0,18.695,,,2061857.5,1767084814.8472826,0
0.0,8.532499999999999,,,2061515.0,1767084814.908152,0
0.0,-6.5925,,,2060840.0,1767084814.9690218,0
0.0,-17.813333333333333,0.270198,33.87,2060776.0,1767084815.0298913,0
0.0,-35.9025,,,2061177.0,1767084815.090761,0
0.0,-41.9975,,,2061703.0,1767084815.1516304,0
0.0,-7.09,,,2062737.0,1767084815.2125,0
0.0,22.082500000000003,0.270198,33.84,2063949.0,1767084815.2733696,0
0.0,27.4225,,,2064744.0,1767084815.3342392,0
0.0,22.955,,,2066054.5,1767084815.3951087,0
0.0,24.9225,,,2064558.0,1767084815.4559782,0
0.0,21.990000000000002,0.267637,33.84,2061885.0,1767084815.5168478,0
0.0,15.036666666666667,,,2060525.0,1767084815.5777173,0
0.0,3.835,,,2059868.5,1767084815.638587,0
0.0,-9.075,,,2059501.0,1767084815.6994565,0
0.0,-23.965,0.266356,33.84,2059008.5,1767084815.7603261,0
0.0,-44.2775,,,2058954.0,1767084815.8211956,0
0.0,-34.7825,,,2059597.5,1767084815.8820653,0
0.0,6.8325,,,2060347.0,1767084815.9429348,0
0.0,28.7425,0.267637,33.84,2061620.0,1767084816.0038044,0
0.0,27.2125,,,2062626.0,1767084816.064674,0
0.0,24.310000000000002,,,2063888.5,1767084816.1255436,0
0.0,28.846666666666664,,,2065378.0,1767084816.186413,0
0.0,27.0125,,,2062810.0,1767084816.2472825,0
0.0,18.11,0.265076,33.84,2060584.0,1767084816.3081522,0
0.0,4.955,,,2060067.0,1767084816.3690217,0
0.0,-8.9925,,,2060457.0,1767084816.4298913,0
0.0,-20.32,,,2060023.0,1767084816.4907608,0
0.0,-38.822500000000005,0.265076,33.84,2060263.5,1767084816.5516305,0
0.0,-45.62,,,2061308.0,1767084816.6125,0
0.0,-10.235000000000001,,,2062193.5,1767084816.6733696,0
0.0,18.819999999999997,,,2063577.0,1767084816.734239,0
0.0,25.535000000000004,0.270198,33.84,2065080.5,1767084816.7951088,0
0.0,23.102500000000003,,,2066909.0,1767084816.8559783,0
0.0,25.8425,,,2067765.5,1767084816.916848,0
0.0,28.0275,,,2065991.0,1767084816.9777174,0
0.0,21.009999999999998,0.270198,33.84,2064360.0,1767084817.0385869,0
0.0,10.4025,,,2064222.0,1767084817.0994565,0
0.0,-3.3625000000000003,,,2064968.0,1767084817.160326,0
0.0,-15.990000000000002,,,2064968.0,1767084817.2211957,0
0.0,-29.73,0.268918,33.83,2065369.0,1767084817.2820652,0
0.0,-46.6,,,2065802.0,1767084817.3429348,0
0.0,-38.2125,,,2067296.0,1767084817.4038043,0
0.0,1.9449999999999996,,,2068533.0,1767084817.464674,0
0.0,23.2,0.267637,33.83,2070263.5,1767084817.5255435,0
0.0,21.222499999999997,,,2070436.0,1767084817.5864131,0
0.0,19.270000000000003,,,2067627.0,1767084817.6472826,0
0.0,23.17,,,2066436.0,1767084817.708152,0
0.0,18.4775,0.272759,33.83,2066432.0,1767084817.7690217,0
0.0,10.0025,,,2066682.0,1767084817.8298912,0
0.0,-2.3375000000000004,,,2066694.0,1767084817.890761,0
0.0,-10.686666666666667,,,2066537.5,1767084817.9516304,0
0.0,-23.7475,0.266356,33.83,2067772.5,1767084818.0125,0
0.0,-40.912499999999994,,,2069133.0,1767084818.0733695,0
0.0,-30.59,,,2070329.5,1767084818.1342392,0
0.0,5.785,,,2071855.0,1767084818.1951087,0
0.0,19.917499999999997,0.265076,33.84,2070725.5,1767084818.2559783,0
0.0,12.725,,,2067571.0,1767084818.3168478,0
0.0,11.5475,,,2065883.5,1767084818.3777175,0
0.0,15.8675,,,2065452.0,1767084818.438587,0
0.0,13.746666666666668,,,2065168.0,1767084818.4994564,0
0.0,3.2125000000000004,0.265076,33.84,2064900.0,1767084818.560326,0
0.0,-9.9275,,,2064945.5,1767084818.6211956,0
0.0,-22.884999999999998,,,2065809.0,1767084818.6820652,0
0.0,-41.49999999999999,,,2066873.0,1767084818.7429347,0
0.0,-28.875,0.263795,33.84,2068279.0,1767084818.8038044,0
0.0,6.1025,,,2069441.0,1767084818.8646739,0
0.0,18.807499999999997,,,2068667.0,1767084818.9255435,0
0.0,17.1475,,,2065235.0,1767084818.986413,0
0.0,14.785,0.268918,33.84,2063688.5,1767084819.0472827,0
0.0,16.566666666666666,,,2062869.0,1767084819.1081522,0
0.0,11.282499999999999,,,2062551.5,1767084819.1690218,0
0.0,-0.3074999999999999,,,2062431.0,1767084819.2298913,0
0.0,-15.485,0.268918,33.84,2062021.5,1767084819.2907608,0
0.0,-30.605000000000004,,,2062789.0,1767084819.3516304,0
0.0,-49.584999999999994,,,2063637.0,1767084819.4125,0
0.0,-32.7075,,,2064648.0,1767084819.4733696,0
0.0,5.7125,0.270198,33.84,2065952.5,1767084819.534239,0
0.0,22.255,,,2067848.0,1767084819.5951087,0
0.0,22.756666666666664,,,2065538.0,1767084819.6559782,0
0.0,21.034999999999997,,,2062751.0,1767084819.716848,0
0.0,21.5075,0.267637,33.84,2061573.0,1767084819.7777174,0
0.0,17.3525,,,2061203.0,1767084819.838587,0
0.0,6.4275,,,2060817.0,1767084819.8994565,0
0.0,-8.6475,,,2060384.0,1767084819.9603262,0
0.0,-22.7875,0.266356,33.84,2060799.5,1767084820.0211957,0
0.0,-44.237500000000004,,,2061683.0,1767084820.082065,0
0.0,-41.17,,,2062681.0,1767084820.1429348,0
0.0,-1.4075000000000002,,,2063197.5,1767084820.2038043,0
0.0,22.19333333333333,0.263795,33.84,2064197.0,1767084820.264674,0
0.0,26.457500000000003,,,2065955.0,1767084820.3255434,0
0.0,22.9625,,,2065326.0,1767084820.386413,0
0.0,24.58,,,2062601.5,1767084820.4472826,0
0.0,21.0,0.265076,33.84,2060879.0,1767084820.5081522,0
0.0,14.68,,,2060596.0,1767084820.5690217,0
0.0,-1.27,,,2060425.0,1767084820.6298914,0
0.0,-14.5775,,,2060509.0,1767084820.6907609,0
0.0,-31.130000000000003,0.263795,33.84,2060453.0,1767084820.7516305,0
0.0,-48.17666666666667,,,2060912.0,1767084820.8125,0
0.0,-30.7625,,,2062472.0,1767084820.8733695,0
0.0,10.065,,,2063516.0,1767084820.9342391,0
0.0,25.425,,,2064949.0,1767084820.9951086,0
0.0,21.96,0.266356,33.84,2066057.5,1767084821.0559783,0
0.0,21.307499999999997,,,2065101.0,1767084821.1168478,0
0.0,23.06,,,2062693.0,1767084821.1777174,0
0.0,18.86,,,2061763.0,1767084821.238587,0
0.0,9.0525,0.267637,33.81,2061858.0,1767084821.2994566,0
0.0,-6.609999999999999,,,2062302.5,1767084821.360326,0
0.0,-15.976666666666667,,,2062422.0,1767084821.4211957,0
0.0,-31.88,,,2062889.5,1767084821.4820652,0
0.0,-46.9775,0.266356,33.81,2063893.0,1767084821.542935,0
0.0,-20.075,,,2065413.0,1767084821.6038043,0
0.0,17.235,,,2066674.0,1767084821.6646738,0
0.0,26.174999999999997,,,2067286.0,1767084821.7255435,0
0.0,20.915,0.267637,33.81,2065304.0,1767084821.786413,0
0.0,22.015,,,2063339.0,1767084821.8472826,0
0.0,22.1425,,,2062997.0,1767084821.908152,0
0.0,16.52,,,2063148.5,1767084821.9690218,0
0.0,4.293333333333334,0.267637,33.81,2062927.0,1767084822.0298913,0
0.0,-8.232500000000002,,,2063175.5,1767084822.090761,0
0.0,-21.1075,,,2063533.0,1767084822.1516304,0
0.0,-40.027499999999996,,,2064705.5,1767084822.2125,0
0.0,-33.824999999999996,0.265076,33.84,2066235.0,1767084822.2733696,0
0.0,4.88,,,2067175.5,1767084822.3342392,0
0.0,26.66,,,2066491.0,1767084822.3951087,0
0.0,21.135,,,2063030.5,1767084822.4559782,0
0.0,11.4375,0.263795,33.84,2061694.0,1767084822.5168478,0
0.0,13.6,,,2061193.5,1767084822.5777173,0
0.0,12.955,,,2061112.0,1767084822.638587,0
0.0,2.0749999999999997,,,2060823.0,1767084822.6994565,0
0.0,-11.1625,0.263795,33.84,2061215.0,1767084822.7603261,0
0.0,-23.195,,,2062208.0,1767084822.8211956,0
0.0,-41.349999999999994,,,2063020.0,1767084822.8820653,0
0.0,-28.9575,,,2064151.0,1767084822.9429348,0
0.0,10.620000000000001,0.263795,33.84,2064463.0,1767084823.0038044,0
0.0,24.18,,,2061349.0,1767084823.064674,0
0.0,19.7825,,,2058866.5,1767084823.1255436,0
0.0,21.016666666666666,,,2057532.0,1767084823.186413,0
0.0,24.317499999999995,,,2057426.0,1767084823.2472825,0
0.0,12.695,0.266356,33.84,2057213.0,1767084823.3081522,0
0.0,-3.2475,,,2056933.0,1767084823.3690217,0
0.0,-18.2,,,2057037.0,1767084823.4298913,0
0.0,-37.724999999999994,,,2058039.5,1767084823.4907608,0
0.0,-45.6975,0.268918,33.84,2059055.0,1767084823.5516305,0
0.0,-6.657500000000001,,,2060529.5,1767084823.6125,0
0.0,22.252499999999998,,,2060773.0,1767084823.6733696,0
0.0,23.71666666666667,,,2057525.0,1767084823.734239,0
0.0,17.0175,0.266356,33.84,2054762.0,1767084823.7951088,0
0.0,17.43,,,2054183.0,1767084823.8559783,0
0.0,17.165,,,2054219.0,1767084823.916848,0
0.0,5.4275,,,2053963.0,1767084823.9777174,0
0.0,-10.407499999999999,0.266356,33.84,2053973.0,1767084824.0385869,0
0.0,-26.425,,,2054764.0,1767084824.0994565,0
0.0,-45.997499999999995,,,2055955.5,1767084824.160326,0
0.0,-28.265,,,2057123.0,1767084824.2211957,0
0.0,12.424999999999999,0.266356,33.83,2058420.0,1767084824.2820652,0
0.0,25.8,,,2059505.0,1767084824.3429348,0
0.0,22.3975,,,2057014.0,1767084824.4038043,0
0.0,19.0575,,,2054529.0,1767084824.464674,0
0.0,20.1375,0.263795,33.83,2053803.0,1767084824.5255435,0
0.0,17.1325,,,2054061.0,1767084824.5864131,0
0.0,2.93,,,2053780.0,1767084824.6472826,0
0.0,-12.9275,,,2053959.5,1767084824.708152,0
0.0,-29.32,0.265076,33.83,2054517.0,1767084824.7690217,0
0.0,-43.010000000000005,,,2055423.0,1767084824.8298912,0
0.0,-17.055,,,2056616.0,1767084824.890761,0
0.0,16.173333333333336,,,2057854.5,1767084824.9516304,0
0.0,26.755,0.262515,33.83,2059445.0,1767084825.0125,0
0.0,21.695,,,2060770.0,1767084825.0733695,0
0.0,21.2,,,2058694.0,1767084825.1342392,0
0.0,22.23,,,2056522.5,1767084825.1951087,0
0.0,15.472499999999998,0.265076,33.84,2055875.0,1767084825.2559783,0
0.0,2.295,,,2056236.0,1767084825.3168478,0
0.0,-11.2225,,,2056348.0,1767084825.3777175,0
0.0,-27.205000000000002,,,2056563.0,1767084825.438587,0
0.0,-45.300000000000004,,,2057281.0,1767084825.4994564,0
0.0,-38.339999999999996,0.267637,33.84,2058846.5,1767084825.560326,0
0.0,0.02249999999999952,,,2060147.0,1767084825.6211956,0
0.0,22.76,,,2061965.5,1767084825.6820652,0
0.0,23.4525,,,2064537.0,1767084825.7429347,0
0.0,20.07,0.267637,33.84,2064956.0,1767084825.8038044,0
0.0,23.84,,,2062935.5,1767084825.8646739,0
0.0,21.965,,,2062208.0,1767084825.9255435,0
0.0,12.865,,,2062672.5,1767084825.986413,0
0.0,-0.9850000000000001,0.266356,33.84,2063637.0,1767084826.0472827,0
0.0,-11.386666666666665,,,2063900.0,1767084826.1081522,0
0.0,-21.27,,,2064613.0,1767084826.1690218,0
0.0,-39.5025,,,2065844.0,1767084826.2298913,0
0.0,-41.08,0.266356,33.83,2067607.0,1767084826.2907608,0
0.0,-6.4,,,2069059.5,1767084826.3516304,0
0.0,19.905,,,2070999.0,1767084826.4125,0
0.0,21.425,,,2071062.0,1767084826.4733696,0
0.0,17.445,0.263795,33.83,2069591.0,1767084826.534239,0
0.0,21.0975,,,2068344.0,1767084826.5951087,0
0.0,18.906666666666666,,,2068974.0,1767084826.6559782,0
0.0,13.417499999999999,,,2069636.0,1767084826.716848,0
0.0,2.8450000000000006,0.263795,33.83,2070084.0,1767084826.7777174,0
0.0,-9.4275,,,2070312.5,1767084826.838587,0
0.0,-20.947499999999998,,,2071257.0,1767084826.8994565,0
0.0,-38.565,,,2072548.0,1767084826.9603262,0
0.0,-29.71,0.262515,33.83,2074125.0,1767084827.0211957,0
0.0,4.305,,,2075442.5,1767084827.082065,0
0.0,19.7375,,,2074319.0,1767084827.1429348,0
0.0,15.572500000000002,,,2071984.0,1767084827.2038043,0
0.0,12.366666666666665,0.263795,33.83,2071004.0,1767084827.264674,0
0.0,13.8575,,,2071385.0,1767084827.3255434,0
0.0,11.959999999999999,,,2071487.5,1767084827.386413,0
0.0,2.7525,,,2071353.0,1767084827.4472826,0
0.0,-10.3025,0.265076,33.83,2072108.5,1767084827.5081522,0
0.0,-22.192500000000003,,,2072929.0,1767084827.5690217,0
0.0,-38.2875,,,2074297.0,1767084827.6298914,0
0.0,-28.66,,,2075560.0,1767084827.6907609,0
0.0,6.5600000000000005,0.266356,33.83,2074667.5,1767084827.7516305,0
0.0,20.893333333333334,,,2071794.0,1767084827.8125,0
0.0,16.2625,,,2070155.5,1767084827.8733695,0
0.0,9.9125,,,2069757.0,1767084827.9342391,0
0.0,12.522499999999999,,,2069481.5,1767084827.9951086,0
0.0,8.91,0.267637,33.83,2069753.0,1767084828.0559783,0
0.0,-4.6975,,,2069565.5,1767084828.1168478,0
0.0,-18.1325,,,2070535.0,1767084828.1777174,0
0.0,-37.91,,,2071571.5,1767084828.238587,0
0.0,-43.98499999999999,0.266356,33.83,2073419.0,1767084828.2994566,0
0.0,-9.112499999999999,,,2074198.5,1767084828.360326,0
0.0,15.746666666666668,,,2073149.0,1767084828.4211957,0
0.0,20.4625,,,2070386.5,1767084828.4820652,0
0.0,15.295,0.265076,33.83,2069005.0,1767084828.542935,0
0.0,15.395,,,2068653.0,1767084828.6038043,0
0.0,15.015,,,2068179.0,1767084828.6646738,0
0.0,3.8575000000000004,,,2068102.0,1767084828.7255435,0
0.0,-11.225000000000001,0.263795,33.83,2068870.5,1767084828.786413,0
0.0,-30.002499999999998,,,2069445.0,1767084828.8472826,0
0.0,-47.115,,,2070781.0,1767084828.908152,0
0.0,-24.8675,,,2072161.0,1767084828.9690218,0
0.0,9.950000000000001,0.263795,33.83,2073853.0,1767084829.0298913,0
0.0,24.622500000000002,,,2075422.0,1767084829.090761,0
0.0,24.7025,,,2072962.5,1767084829.1516304,0
0.0,20.6625,,,2070454.0,1767084829.2125,0
0.0,21.3125,0.262515,33.83,2070288.0,1767084829.2733696,0
0.0,14.5175,,,2070757.0,1767084829.3342392,0
0.0,0.9650000000000003,,,2070742.5,1767084829.3951087,0
0.0,-14.14,,,2071001.0,1767084829.4559782,0
0.0,-35.9,0.262515,33.83,2071861.0,1767084829.5168478,0
0.0,-44.916666666666664,,,2073596.0,1767084829.5777173,0
0.0,-14.677499999999998,,,2075580.5,1767084829.638587,0
0.0,20.41,,,2077499.0,1767084829.6994565,0
0.0,30.32,0.265076,33.83,2079739.0,1767084829.7603261,0
0.0,27.3875,,,2081787.0,1767084829.8211956,0
0.0,30.462500000000002,,,2084213.5,1767084829.8820653,0
0.0,30.595,,,2084941.0,1767084829.9429348,0
0.0,21.715,0.263795,33.83,2083120.0,1767084830.0038044,0
0.0,7.1225000000000005,,,2082439.0,1767084830.064674,0
0.0,-8.815,,,2083051.5,1767084830.1255436,0
0.0,-20.53333333333333,,,2084056.0,1767084830.186413,0
0.0,-38.995,,,2084741.0,1767084830.2472825,0
0.0,-48.2375,0.265076,33.81,2085833.5,1767084830.3081522,0
0.0,-15.072500000000002,,,2087264.0,1767084830.3690217,0
0.0,21.485,,,2089366.0,1767084830.4298913,0
0.0,31.270000000000003,,,2091547.0,1767084830.4907608,0
0.0,29.7475,0.265076,33.81,2093380.5,1767084830.5516305,0
0.0,32.105000000000004,,,2095885.0,1767084830.6125,0
0.0,32.1775,,,2098044.0,1767084830.6733696,0
0.0,27.819999999999997,,,2100126.0,1767084830.734239,0
0.0,16.925,0.277882,33.81,2099627.5,1767084830.7951088,0
0.0,4.357500000000001,,,2098843.0,1767084830.8559783,0
0.0,-8.3725,,,2099363.0,1767084830.916848,0
0.0,-19.25,,,2100363.0,1767084830.9777174,0
0.0,-34.8475,0.265076,33.81,2101819.5,1767084831.0385869,0
0.0,-52.5225,,,2102669.0,1767084831.0994565,0
0.0,-27.9775,,,2104246.5,1767084831.160326,0
0.0,10.682500000000001,,,2105897.0,1767084831.2211957,0
0.0,23.4825,0.261234,33.81,2108113.5,1767084831.2820652,0
0.0,23.293333333333333,,,2109658.0,1767084831.3429348,0
0.0,24.2325,,,2111975.5,1767084831.4038043,0
0.0,26.28,,,2113984.0,1767084831.464674,0
0.0,27.275,0.262515,33.81,2116430.5,1767084831.5255435,0
0.0,21.9575,,,2118114.0,1767084831.5864131,0
0.0,10.3525,,,2117724.0,1767084831.6472826,0
0.0,0.6474999999999997,,,2118234.5,1767084831.708152,0
0.0,-11.8825,0.261234,33.81,2119416.0,1767084831.7690217,0
0.0,-23.8425,,,2120944.5,1767084831.8298912,0
0.0,-43.120000000000005,,,2121933.0,1767084831.890761,0
0.0,-49.75666666666666,,,2123492.5,1767084831.9516304,0
0.0,-22.3525,0.263795,33.81,2125060.0,1767084832.0125,0
0.0,10.6175,,,2127272.0,1767084832.0733695,0
0.0,20.755,,,2129080.0,1767084832.1342392,0
0.0,19.02,,,2131453.0,1767084832.1951087,0
0.0,21.3025,0.265076,33.83,2133761.0,1767084832.2559783,0
0.0,24.4325,,,2135624.0,1767084832.3168478,0
0.0,19.645,,,2136182.0,1767084832.3777175,0
0.0,8.91,,,2136420.0,1767084832.438587,0
0.0,2.3233333333333337,,,2137206.0,1767084832.4994564,0
0.0,-5.779999999999999,0.263795,33.83,2138573.5,1767084832.560326,0
0.0,-16.252499999999998,,,2140264.0,1767084832.6211956,0
0.0,-25.9525,,,2141292.0,1767084832.6820652,0
0.0,-41.575,,,2142439.0,1767084832.7429347,0
0.0,-30.6725,0.263795,33.83,2144272.0,1767084832.8038044,0
0.0,2.8,,,2146343.0,1767084832.8646739,0
0.0,18.4625,,,2148176.0,1767084832.9255435,0
0.0,16.2775,,,2150602.0,1767084832.986413,0
0.0,14.385,0.263795,33.83,2151577.0,1767084833.0472827,0
0.0,18.083333333333332,,,2151313.5,1767084833.1081522,0
0.0,16.705,,,2151188.0,1767084833.1690218,0
0.0,8.1575,,,2152033.5,1767084833.2298913,0
0.0,-4.015000000000001,0.266356,33.83,2152966.0,1767084833.2907608,0
0.0,-7.192500000000001,,,2153887.5,1767084833.3516304,0
0.0,-11.8375,,,,1767084833.4125,0
0.0,-27.252499999999998,,,2155176.0,1767084833.4733696,0
0.0,-37.3975,0.261234,33.83,2156777.0,1767084833.534239,0
0.0,-14.2975,,,2158170.5,1767084833.5951087,0
0.0,10.983333333333334,,,2159569.0,1767084833.6559782,0
0.0,17.06,,,2161409.0,1767084833.716848,0
0.0,7.937500000000001,0.259954,33.83,2161643.0,1767084833.7777174,0
0.0,7.095,,,2160234.0,1767084833.838587,0
0.0,10.397499999999999,,,2159462.0,1767084833.8994565,0
0.0,6.987500000000001,,,2159740.5,1767084833.9603262,0
0.0,-1.6374999999999997,0.259954,33.83,2160488.5,1767084834.0211957,0
0.0,-11.33,,,2160466.0,1767084834.082065,0
0.0,-20.7725,,,2161048.0,1767084834.1429348,0
0.0,-35.865,,,2161880.0,1767084834.2038043,0
0.0,-32.76333333333333,0.259954,33.83,2162975.5,1767084834.264674,0
0.0,-5.1075,,,2164377.0,1767084834.3255434,0
0.0,17.1925,,,2164866.5,1767084834.386413,0
0.0,14.4175,,,2163964.0,1767084834.4472826,0
0.0,8.885,0.262515,33.83,2161421.0,1767084834.5081522,0
0.0,12.3325,,,2159872.0,1767084834.5690217,0
0.0,9.585,,,2159504.0,1767084834.6298914,0
0.0,-0.74,,,2159025.5,1767084834.6907609,0
0.0,-12.91,0.262515,33.83,2158536.0,1767084834.7516305,0
0.0,-23.53333333333333,,,2158316.0,1767084834.8125,0
0.0,-39.1675,,,2158999.0,1767084834.8733695,0
0.0,-40.7475,,,2159300.0,1767084834.9342391,0
0.0,-7.302500000000001,,,2160028.0,1767084834.9951086,0
0.0,16.045,0.262515,33.83,2160731.5,1767084835.0559783,0
0.0,16.724999999999998,,,2159279.0,1767084835.1168478,0
0.0,12.785,,,2155425.0,1767084835.1777174,0
0.0,13.877500000000001,,,2152911.0,1767084835.238587,0
0.0,10.6875,0.261234,33.79,2151425.0,1767084835.2994566,0
0.0,-2.5125,,,2150294.0,1767084835.360326,0
0.0,-14.443333333333333,,,2149287.0,1767084835.4211957,0
0.0,-24.3775,,,2147793.0,1767084835.4820652,0
0.0,-42.0475,0.262515,33.79,2147651.0,1767084835.542935,0
0.0,-39.800000000000004,,,2147571.0,1767084835.6038043,0
0.0,-3.5725,,,2147608.5,1767084835.6646738,0
0.0,18.1875,,,2147719.0,1767084835.7255435,0
0.0,18.9525,0.261234,33.79,2148295.5,1767084835.786413,0
0.0,16.4175,,,2146324.0,1767084835.8472826,0
0.0,18.229999999999997,,,2142881.0,1767084835.908152,0
0.0,17.16,,,2139236.0,1767084835.9690218,0
0.0,11.416666666666666,0.259954,33.79,2136700.0,1767084836.0298913,0
0.0,-1.7625000000000002,,,2134692.0,1767084836.090761,0
0.0,-19.48,,,2132768.0,1767084836.1516304,0
0.0,-41.6025,,,2130848.0,1767084836.2125,0
0.0,-51.1275,0.261234,33.81,2129899.0,1767084836.2733696,0
0.0,-14.594999999999999,,,2129291.0,1767084836.3342392,0
0.0,20.25,,,2128804.0,1767084836.3951087,0
0.0,29.265,,,2128596.5,1767084836.4559782,0
0.0,25.6,0.259954,33.81,2128758.0,1767084836.5168478,0
0.0,28.403333333333332,,,2128163.5,1767084836.5777173,0
0.0,28.040000000000003,,,2124411.0,1767084836.638587,0
0.0,19.565,,,2119336.0,1767084836.6994565,0
0.0,8.0525,0.259954,33.81,2116264.0,1767084836.7603261,0
0.0,-7.5025,,,2113675.5,1767084836.8211956,0
0.0,-23.294999999999998,,,2111345.0,1767084836.8820653,0
0.0,-49.059999999999995,,,2109008.0,1767084836.9429348,0
0.0,-49.47,0.263795,33.81,2107047.0,1767084837.0038044,0
0.0,-9.305,,,2106133.0,1767084837.064674,0
0.0,20.7475,,,2105395.0,1767084837.1255436,0
0.0,26.463333333333335,,,2105128.0,1767084837.186413,0
0.0,25.0325,,,2104705.5,1767084837.2472825,0
0.0,29.325000000000003,0.265076,33.79,2104019.0,1767084837.3081522,0
0.0,31.2675,,,2098823.0,1767084837.3690217,0
0.0,24.5225,,,2094158.0,1767084837.4298913,0
0.0,11.055,,,2091462.5,1767084837.4907608,0
0.0,-4.1975,0.263795,33.79,2089273.0,1767084837.5516305,0
0.0,-19.759999999999998,,,2087201.0,1767084837.6125,0
0.0,-43.89,,,2085259.0,1767084837.6733696,0
0.0,-53.943333333333335,,,2084068.0,1767084837.734239,0
0.0,-23.962500000000002,0.265076,33.79,2083276.0,1767084837.7951088,0
0.0,15.927499999999998,,,2083404.0,1767084837.8559783,0
0.0,30.029999999999998,,,2083320.0,1767084837.916848,0
0.0,27.67,,,2083866.0,1767084837.9777174,0
0.0,30.9375,0.265076,33.79,2083350.0,1767084838.0385869,0
0.0,31.42,,,2079100.5,1767084838.0994565,0
0.0,24.54,,,2075416.0,1767084838.160326,0
0.0,13.462499999999999,,,2073445.5,1767084838.2211957,0
0.0,-0.9699999999999999,0.266356,33.81,2072387.0,1767084838.2820652,0
0.0,-10.116666666666667,,,2070922.0,1767084838.3429348,0
0.0,-28.002500000000005,,,2069618.0,1767084838.4038043,0
0.0,-38.675,,,2069580.0,1767084838.464674,0
0.0,-9.24,0.261234,33.81,2069470.0,1767084838.5255435,0
0.0,16.7025,,,2070070.0,1767084838.5864131,0
0.0,21.487500000000004,,,2070961.0,1767084838.6472826,0
0.0,17.807499999999997,,,2072042.5,1767084838.708152,0
0.0,22.51,0.262515,33.81,2070377.0,1767084838.7690217,0
0.0,22.8725,,,2066491.0,1767084838.8298912,0
0.0,17.335,,,2064570.0,1767084838.890761,0
0.0,4.67,,,2063669.5,1767084838.9516304,0
0.0,-8.1925,0.262515,33.81,2062978.0,1767084839.0125,0
0.0,-17.665,,,2062362.0,1767084839.0733695,0
0.0,-35.12,,,2062491.0,1767084839.1342392,0
0.0,-37.207499999999996,,,2062822.0,1767084839.1951087,0
0.0,-1.9799999999999995,0.263795,33.79,2063944.5,1767084839.2559783,0
0.0,23.562500000000004,,,2065539.0,1767084839.3168478,0
0.0,22.5625,,,2065816.0,1767084839.3777175,0
0.0,18.9525,,,2062790.0,1767084839.438587,0
0.0,23.209999999999997,,,2059879.5,1767084839.4994564,0
0.0,21.83,0.265076,33.79,2058295.0,1767084839.560326,0
0.0,13.74,,,2058061.0,1767084839.6211956,0
0.0,0.27000000000000024,,,2057122.0,1767084839.6820652,0
0.0,-11.18,,,2056697.0,1767084839.7429347,0
0.0,-25.755000000000003,0.263795,33.79,2057639.5,1767084839.8038044,0
0.0,-40.1775,,,2058468.0,1767084839.8646739,0
0.0,-17.08,,,2059743.0,1767084839.9255435,0
0.0,16.755,,,2061147.0,1767084839.986413,0
0.0,23.9575,0.262515,33.79,2060342.0,1767084840.0472827,0
0.0,16.950000000000003,,,2056948.0,1767084840.1081522,0
0.0,16.33,,,2054191.5,1767084840.1690218,0
0.0,18.2525,,,2053024.0,1767084840.2298913,0
0.0,10.504999999999999,0.262515,33.81,2052505.0,1767084840.2907608,0
0.0,-3.4574999999999996,,,2052164.0,1767084840.3516304,0
0.0,-17.0875,,,2051807.0,1767084840.4125,0
0.0,-36.7575,,,2052434.0,1767084840.4733696,0
0.0,-43.362500000000004,0.263795,33.81,2053234.0,1767084840.534239,0
0.0,-9.555,,,2054770.0,1767084840.5951087,0
0.0,15.769999999999998,,,2056072.0,1767084840.6559782,0
0.0,18.9,,,2056026.5,1767084840.716848,0
0.0,13.3175,0.261234,33.81,2052586.0,1767084840.7777174,0
0.0,14.185,,,2049749.5,1767084840.838587,0
0.0,15.865,,,2048675.0,1767084840.8994565,0
0.0,7.1775,,,2048267.5,1767084840.9603262,0
0.0,-6.975,0.259954,33.81,2047414.0,1767084841.0211957,0
0.0,-21.25,,,2047309.5,1767084841.082065,0
0.0,-41.065,,,2047948.0,1767084841.1429348,0
0.0,-35.955000000000005,,,2048931.5,1767084841.2038043,0
0.0,-0.8033333333333333,0.259954,33.83,2049754.0,1767084841.264674,0
0.0,22.700000000000003,,,2051362.0,1767084841.3255434,0
0.0,26.509999999999998,,,2052971.0,1767084841.386413,0
0.0,20.2925,,,2053931.5,1767084841.4472826,0
0.0,18.675000000000004,0.262515,33.83,2051519.0,1767084841.5081522,0
0.0,15.5525,,,2048442.5,1767084841.5690217,0
0.0,6.585,,,2046910.0,1767084841.6298914,0
0.0,-7.715000000000001,,,2046648.5,1767084841.6907609,0
0.0,-20.78,0.263795,33.83,2046853.0,1767084841.7516305,0
0.0,-38.66,,,2046475.0,1767084841.8125,0
0.0,-46.3875,,,2047129.5,1767084841.8733695,0
0.0,-15.200000000000001,,,2048491.0,1767084841.9342391,0
0.0,17.2675,,,2049556.0,1767084841.9951086,0
0.0,26.735,0.263795,33.83,2051092.0,1767084842.0559783,0
0.0,24.05,,,2052590.0,1767084842.1168478,0
0.0,25.529999999999998,,,2054787.0,1767084842.1777174,0
0.0,23.345,,,2055059.5,1767084842.238587,0
0.0,16.5275,0.263795,33.81,2052228.0,1767084842.2994566,0
0.0,4.324999999999999,,,2050290.5,1767084842.360326,0
0.0,-7.473333333333334,,,2049529.0,1767084842.4211957,0
0.0,-16.05,,,2049835.5,1767084842.4820652,0
0.0,-34.855000000000004,0.263795,33.81,2050204.0,1767084842.542935,0
0.0,-46.4875,,,2050189.5,1767084842.6038043,0
0.0,-19.290000000000003,,,2051702.0,1767084842.6646738,0
0.0,16.0825,,,2053105.0,1767084842.7255435,0
0.0,27.1875,0.259954,33.81,2054818.5,1767084842.786413,0
0.0,24.619999999999997,,,2056471.0,1767084842.8472826,0
0.0,27.155,,,2058568.0,1767084842.908152,0
0.0,28.595000000000002,,,2060345.0,1767084842.9690218,0
0.0,24.126666666666665,0.261234,33.81,2058939.5,1767084843.0298913,0
0.0,14.219999999999999,,,2057130.5,1767084843.090761,0
0.0,2.9575,,,2057098.0,1767084843.1516304,0
0.0,-10.495,,,2057264.0,1767084843.2125,0
0.0,-24.215,0.261234,33.81,2058167.0,1767084843.2733696,0
0.0,-41.4325,,,2058687.5,1767084843.3342392,0
0.0,-47.550000000000004,,,2059748.0,1767084843.3951087,0
0.0,-12.94,,,2061115.5,1767084843.4559782,0
0.0,18.97,0.259954,33.81,2062924.0,1767084843.5168478,0
0.0,25.346666666666668,,,2064590.0,1767084843.5777173,0
0.0,22.18,,,2066320.0,1767084843.638587,0
0.0,21.55,,,2068624.0,1767084843.6994565,0
0.0,22.512500000000003,0.262515,33.81,2069414.0,1767084843.7603261,0
0.0,18.9325,,,2067503.5,1767084843.8211956,0
0.0,9.9825,,,2067215.5,1767084843.8820653,0
0.0,-4.4399999999999995,,,2067969.0,1767084843.9429348,0
0.0,-16.145,0.262515,33.81,2069534.5,1767084844.0038044,0
0.0,-29.252499999999998,,,2070635.0,1767084844.064674,0
0.0,-45.075,,,2072558.0,1767084844.1255436,0
0.0,-35.24333333333334,,,2074683.0,1767084844.186413,0
0.0,-1.2125,,,2076764.5,1767084844.2472825,0
0.0,19.99,0.262515,33.79,2078714.0,1767084844.3081522,0
0.0,17.5675,,,2081198.5,1767084844.3690217,0
0.0,14.025,,,2081820.0,1767084844.4298913,0
0.0,21.3075,,,2080511.0,1767084844.4907608,0
0.0,19.265,0.263795,33.79,2080086.5,1767084844.5516305,0
0.0,12.08,,,2080672.0,1767084844.6125,0
0.0,0.3474999999999998,,,2081519.5,1767084844.6733696,0
0.0,-7.926666666666667,,,2082059.0,1767084844.734239,0
0.0,-18.695,0.262515,33.79,2083502.5,1767084844.7951088,0
0.0,-33.955,,,2085130.0,1767084844.8559783,0
0.0,-22.8625,,,2086902.0,1767084844.916848,0
0.0,16.439999999999998,,,2088419.0,1767084844.9777174,0
0.0,39.084999999999994,0.259954,33.79,2090958.5,1767084845.0385869,0
0.0,43.355,,,2092808.0,1767084845.0994565,0
0.0,50.89,,,2090768.0,1767084845.160326,0
0.0,66.055,,,2088972.0,1767084845.2211957,0
0.0,78.51499999999999,0.259954,33.79,2089003.5,1767084845.2820652,0
0.0,86.20666666666666,,,2089322.0,1767084845.3429348,0
0.0,86.79,,,2089964.5,1767084845.4038043,0
0.0,51.2525,,,2090748.0,1767084845.464674,0
0.0,3.7625,0.258673,33.79,2091581.0,1767084845.5255435,0
0.0,11.7,,,2093071.0,1767084845.5864131,0
0.0,56.97,,,2094792.5,1767084845.6472826,0
0.0,54.477500000000006,,,2096154.0,1767084845.708152,0
0.0,7.4750000000000005,0.257393,33.79,2098537.5,1767084845.7690217,0
0.0,-36.8625,,,2099471.0,1767084845.8298912,0
0.0,-50.58,,,2096901.5,1767084845.890761,0
0.0,-68.88000000000001,,,2094921.0,1767084845.9516304,0
0.0,-98.895,0.259954,33.79,2094774.0,1767084846.0125,0
0.0,-145.72000000000003,,,2095139.0,1767084846.0733695,0
0.0,-169.005,,,2095170.5,1767084846.1342392,0
0.0,-193.96749999999997,,,2095312.0,1767084846.1951087,0
0.0,-215.935,0.261234,33.79,2096049.5,1767084846.2559783,0
0.0,-156.1725,,,2097651.0,1767084846.3168478,0
0.0,-75.4575,,,2098463.0,1767084846.3777175,0
0.0,-24.8425,,,2100639.0,1767084846.438587,0
0.0,6.19,,,2102124.0,1767084846.4994564,0
0.0,34.9725,0.262515,33.79,2102538.5,1767084846.560326,0
0.0,52.7325,,,2099916.0,1767084846.6211956,0
0.0,55.09,,,2098182.0,1767084846.6820652,0
0.0,44.815,,,2097506.0,1767084846.7429347,0
0.0,25.240000000000002,0.259954,33.79,2097491.5,1767084846.8038044,0
0.0,6.470000000000001,,,2097045.0,1767084846.8646739,0
0.0,-21.747500000000002,,,2097113.5,1767084846.9255435,0
0.0,-29.974999999999998,,,2097237.0,1767084846.986413,0
0.0,2.5074999999999994,0.261234,33.79,2097975.0,1767084847.0472827,0
0.0,27.569999999999997,,,2099388.0,1767084847.1081522,0
0.0,37.355000000000004,,,2100404.5,1767084847.1690218,0
0.0,40.065,,,2101260.0,1767084847.2298913,0
0.0,46.370000000000005,0.257393,33.81,2102902.5,1767084847.2907608,0
0.0,45.262499999999996,,,2102762.0,1767084847.3516304,0
0.0,34.455,,,2099187.5,1767084847.4125,0
0.0,18.705,,,2097118.0,1767084847.4733696,0
0.0,0.3075000000000001,0.258673,33.81,2096225.0,1767084847.534239,0
0.0,-15.899999999999999,,,2095583.0,1767084847.5951087,0
0.0,-36.6,,,2095290.5,1767084847.6559782,0
0.0,-50.43,,,2094602.0,1767084847.716848,0
0.0,-20.9575,0.257393,33.81,2094980.0,1767084847.7777174,0
0.0,21.35,,,2095751.0,1767084847.838587,0
0.0,36.845,,,2096367.5,1767084847.8994565,0
0.0,34.85,,,2097893.0,1767084847.9603262,0
0.0,35.832499999999996,0.257393,33.81,2099083.0,1767084848.0211957,0
0.0,37.575,,,2099632.5,1767084848.082065,0
0.0,29.122499999999995,,,2097131.0,1767084848.1429348,0
0.0,16.3125,,,2094543.0,1767084848.2038043,0
0.0,2.5666666666666664,0.259954,33.81,2092913.0,1767084848.264674,0
0.0,-10.9725,,,2092382.5,1767084848.3255434,0
0.0,-28.155,,,2091666.0,1767084848.386413,0
0.0,-50.464999999999996,,,2090654.5,1767084848.4472826,0
0.0,-43.932500000000005,0.262515,33.81,2090606.0,1767084848.5081522,0
0.0,3.1125,,,2091059.0,1767084848.5690217,0
0.0,32.05,,,2091933.0,1767084848.6298914,0
0.0,35.945,,,2092610.5,1767084848.6907609,0
0.0,33.595,0.262515,33.81,2093394.0,1767084848.7516305,0
0.0,37.303333333333335,,,2094768.5,1767084848.8125,0
0.0,36.037499999999994,,,2095310.0,1767084848.8733695,0
0.0,25.0375,,,2092165.5,1767084848.9342391,0
0.0,12.4175,,,2089484.0,1767084848.9951086,0
0.0,-4.045000000000001,0.261234,33.81,2088605.5,1767084849.0559783,0
0.0,-18.18,,,2088054.0,1767084849.1168478,0
0.0,-33.9275,,,2087609.5,1767084849.1777174,0
0.0,-52.465,,,2087196.5,1767084849.238587,0
0.0,-26.4225,0.261234,33.81,2087821.0,1767084849.2994566,0
0.0,17.450000000000003,,,2088454.5,1767084849.360326,0
0.0,31.71666666666667,,,2089274.0,1767084849.4211957,0
0.0,30.262500000000003,,,2090475.5,1767084849.4820652,0
0.0,31.230000000000004,0.258673,33.81,2091624.0,1767084849.542935,0
0.0,34.165000000000006,,,2091682.5,1767084849.6038043,0
0.0,28.1525,,,2088907.0,1767084849.6646738,0
0.0,19.105,,,2087251.0,1767084849.7255435,0
0.0,7.092499999999999,0.258673,33.81,2086885.0,1767084849.786413,0
0.0,-7.092499999999999,,,2087041.0,1767084849.8472826,0
0.0,-19.125,,,2086517.0,1767084849.908152,0
0.0,-36.5625,,,2086288.5,1767084849.9690218,0
0.0,-42.01666666666667,0.258673,33.81,2087147.0,1767084850.0298913,0
0.0,-13.105,,,2087588.5,1767084850.090761,0
0.0,20.6,,,2089034.0,1767084850.1516304,0
0.0,26.880000000000003,,,2089887.5,1767084850.2125,0
0.0,20.910000000000004,0.257393,33.81,2090181.0,1767084850.2733696,0
0.0,25.335,,,2087263.0,1767084850.3342392,0
0.0,26.96,,,2085200.0,1767084850.3951087,0
0.0,19.529999999999998,,,2084494.5,1767084850.4559782,0
