Unnamed: 0,ID,empatica_bvp,empatica_eda,empatica_temp,samsung_bvp,CL
486,10,-1.1201917117,-0.7391308315,0.9072889761,-1.391414905,1
487,10,-0.1856450884,-0.626507552,0.9072889761,-1.2782826048,1
488,10,-0.6432646147,-0.684634324,0.9072889761,-1.2075475523,1
489,10,-8.2364290532,-0.713699128,0.9072889761,-1.0938006582,1
490,10,-2.3812469859,-0.7173322285,0.9072889761,-1.0625942082,1
491,10,3.7054969259,-0.72823153,0.9072889761,-0.9869180805,1
492,10,1.0771302367,-0.7245984295,0.8827070637,-0.9626245954,1
493,10,-0.6746555426,-0.72823153,0.8827070637,-0.9569148723,1
494,10,1.1558655639,-0.7245984295,0.8827070637,-0.824324757,1
495,10,-0.0145860322,-0.72823153,0.8827070637,-0.7949799264,1
496,10,-0.2040926337,-0.7245984295,0.8581251514,-0.8746776711,1
497,10,1.0364510343,-0.713699128,0.8581251514,-0.8811252312,1
498,10,-0.9393283657,-0.720965329,0.8827070637,-0.8482679723,1
499,10,-0.5395025477,-0.713699128,0.8827070637,-0.8535933714,1
500,10,0.2414865367,-0.713699128,0.9072889761,-0.8619057942,1
501,10,-0.4071876367,-0.713699128,0.9072889761,-0.8714409182,1
502,10,0.5492036322,-0.7100660275,0.9072889761,-0.8786036125,1
503,10,-0.5035534851,-0.720965329,0.8827070637,-0.9488505574,1
504,10,0.0108707202,-0.72823153,0.8827070637,-0.9716245848,1
505,10,-0.6652382642,-0.720965329,0.9072889761,-1.0496050342,1
506,10,-0.7791486312,-0.720965329,0.9072889761,-1.0736390602,1
507,10,0.7105444011,-0.72823153,0.9072889761,-1.0708385229,1
508,10,1.0144487115,-0.7173322285,0.8581251514,-1.1436849243,1
509,10,1.3577135301,-0.7100660275,0.8581251514,-1.1682508415,1
510,10,-0.1602313372,-0.720965329,0.8581251514,-1.1575822053,1
511,10,-1.6587826314,-0.7173322285,0.8581251514,-1.1938400008,1
512,10,-0.1598013245,-0.7100660275,0.8581251514,-1.1822956899,1
513,10,-0.3174439841,-0.713699128,0.8581251514,-1.1567422063,1
514,10,0.4355082716,-0.713699128,0.8581251514,-1.1673475993,1
515,10,0.6472895315,-0.7100660275,0.8581251514,-1.1468632989,1
516,10,-0.3616492907,-0.720965329,0.8581251514,-1.1486146482,1
517,10,0.2877559044,-0.713699128,0.8827070637,-1.0155996686,1
518,10,0.2536988977,-0.7173322285,0.8827070637,-0.9998342816,1
519,10,-0.0812380023,-0.6592054566,0.8827070637,-1.0173737205,1
520,10,-0.6316972728,-0.699166726,0.8827070637,-1.0474434151,1
521,10,0.1513558727,-0.6882674245,0.8581251514,-1.0278915461,1
522,10,-0.4151858732,-0.691900525,0.8581251514,-1.0676406888,1
523,10,0.4020532828,-0.6955336255,0.8581251514,-1.0354353211,1
524,10,0.2478077236,-0.7027998265,0.8581251514,-1.0063937334,1
525,10,0.528219012,-0.691900525,0.8581251514,-1.0504807089,1
526,10,0.5571158661,-0.699166726,0.8581251514,-1.0954190347,1
527,10,-0.1164560433,-0.6955336255,0.8581251514,-1.1701643528,1
528,10,-0.5712374857,-0.7027998265,0.833543239,-1.2029745847,1
529,10,-0.5959632166,-0.699166726,0.833543239,-1.2587583033,1
530,10,0.3395294347,-0.706432927,0.833543239,-1.2685496432,1
531,10,-0.8342762606,-0.706432927,0.833543239,-1.2849961104,1
532,10,-1.530366508,-0.7027998265,0.8581251514,-1.3500263047,1
533,10,0.9260237703,-0.7027998265,0.8581251514,-1.3621089933,1
534,10,0.5829166287,-0.699166726,0.8581251514,-1.3505371149,1
535,10,0.8146504783,-0.706432927,0.833543239,-1.444109438,1
536,10,0.5781864889,-0.7100660275,0.833543239,-1.4311672909,1
537,10,-0.6105836487,-0.7027998265,0.833543239,-1.4758672387,1
538,10,-0.5274191905,-0.699166726,0.8581251514,-1.3539571109,1
539,10,0.1699324217,-0.6628385571,0.8581251514,-1.5071158508,1
540,10,-1.3513665448,-0.6701047581,0.833543239,-1.5505282325,1
541,10,-0.4770217009,-0.6810012235,0.833543239,-1.4967991061,1
542,10,0.3980111633,-0.6810012235,0.833543239,-1.5370412212,1
543,10,0.0643213001,-0.6701047581,0.833543239,-1.5587352499,1
544,10,-0.6739675222,-0.6773681229,0.833543239,-1.5655752419,1
545,10,0.6479775518,-0.6737378586,0.833543239,-1.5693130754,1
546,10,0.6206717447,-0.6737378586,0.833543239,-1.5437774296,1
547,10,-0.5665073459,-0.684634324,0.833543239,-1.5540682284,1
548,10,0.7378932095,-0.6701047581,0.833543239,-1.5259850179,1
549,10,-0.8247299785,-0.6701047581,0.833543239,-1.4805407467,1
550,10,-1.288885698,-0.6773681229,0.833543239,-1.4827672306,1
551,10,0.3747044744,-0.6882674245,0.833543239,-1.4511051055,1
552,10,-0.373431639,-0.6410399541,0.833543239,-1.4212121674,1
553,10,0.5910868702,-0.6810012235,0.833543239,-1.37460033,1
554,10,-0.3833219313,-0.6737378586,0.833543239,-1.3281538978,1
555,10,-0.5203239808,-0.6737378586,0.7966703705,-1.3914667968,1
556,10,1.5550033616,-0.6773681229,0.7966703705,-1.4012921907,1
557,10,-0.3294413387,-0.6773681229,0.7966703705,-1.3902781495,1
558,10,-0.7165387805,-0.6810012235,0.7966703705,-1.4167332537,1
559,10,0.8340870528,-0.6374068535,0.7966703705,-1.4123905561,1
560,10,-0.9782015148,-0.6519392556,0.7966703705,-1.4318159388,1
561,10,0.8048891898,-0.6519392556,0.7966703705,-1.4360548528,1
562,10,0.3933240247,-0.6483061551,0.7966703705,-1.4168759563,1
563,10,-0.7170117945,-0.6410399541,0.833543239,-1.4234045973,1
564,10,0.5827446236,-0.6446730546,0.833543239,-1.4240921641,1
565,10,0.5071053879,-0.6555723561,0.833543239,-1.3794457298,1
566,10,-0.6614971536,-0.6483061551,0.833543239,-1.3288122754,1
567,10,0.573284344,-0.6446730546,0.7966703705,-1.3599084553,1
568,10,0.5434414619,-0.6410399541,0.7966703705,-1.3375819949,1
569,10,0.8201116397,-0.633773753,0.7966703705,-1.3528317068,1
570,10,-0.8971871201,-0.619241351,0.7966703705,-1.3247857937,1
571,10,-1.7005798668,-0.5683807801,0.7966703705,-1.3724954676,1
572,10,0.6228218082,-0.5865462826,0.7966703705,-1.3837397788,1
573,10,0.0967442585,-0.6010786846,0.7966703705,-1.3671619603,1
574,10,1.0349173165,-0.6083420495,0.7966703705,-1.4286067534,1
575,10,0.9417622355,-0.6083420495,0.7966703705,-1.405981915,1
576,10,-1.3668900036,-0.6228744515,0.833543239,-1.4607213104,1
577,10,0.8660799985,-0.61197515,0.833543239,-1.4396175513,1
578,10,0.7589638323,-0.6301406525,0.7720884581,-1.3505484662,1
579,10,0.4802295935,-0.6228744515,0.7720884581,-1.3399722624,1
580,10,-0.4988233453,-0.619241351,0.7720884581,-1.3422976651,1
581,10,0.6168876328,-0.619241351,0.7966703705,-1.2061091756,1
582,10,-1.217331583,-0.619241351,0.7966703705,-1.3127679699,1
583,10,0.8043301733,-0.6156082505,0.7720884581,-1.3249236313,1
584,10,0.6351201718,-0.6083420495,0.7720884581,-1.3076355434,1
585,10,-1.6546545093,-0.6083420495,0.7720884581,-1.3612349402,1
586,10,-1.318083561,-0.6010786846,0.7966703705,-1.3966803042,1
587,10,0.7994280284,-0.5974455841,0.7966703705,-1.3966219259,1
588,10,-0.0165210894,-0.5974455841,0.7966703705,-1.393060849,1
589,10,-1.1484435468,-0.6010786846,0.7720884581,-1.371850063,1
590,10,0.6121144918,-0.6047117852,0.7720884581,-1.3713457392,1
591,10,-0.5812137806,-0.6083420495,0.7720884581,-1.4062916443,1
592,10,-0.3564461369,-0.61197515,0.7720884581,-1.3687949314,1
593,10,0.2976031954,-0.61197515,0.7720884581,-1.3670727713,1
594,10,-0.6081755775,-0.619241351,0.7720884581,-1.3966316556,1
595,10,0.3035803721,-0.626507552,0.7720884581,-1.3806068095,1
596,10,0.2715014239,-0.61197515,0.7720884581,-1.3485603605,1
597,10,-0.4050805745,-0.6156082505,0.7720884581,-1.3602911576,1
598,10,0.3455926139,-0.619241351,0.759797502,-1.336276591,1
599,10,-0.4548760463,-0.619241351,0.759797502,-1.3806376203,1
600,10,1.0448362821,-0.619241351,0.759797502,-1.3774138402,1
601,10,-0.2602522936,-0.6301406525,0.759797502,-1.3442046899,1
602,10,-1.2875526586,-0.6228744515,0.759797502,-1.3692035796,1
603,10,0.6998370847,-0.619241351,0.759797502,-1.3625257495,1
604,10,1.1435672004,-0.6228744515,0.759797502,-1.3761765444,1
605,10,0.5246929077,-0.6228744515,0.759797502,-1.3551408933,1
606,10,-0.7634961685,-0.6228744515,0.7352155896,-1.3806441067,1
607,10,0.6532237069,-0.633773753,0.7352155896,-1.3374798329,1
608,10,-0.2713036203,-0.6228744515,0.7352155896,-1.3722522247,1
609,10,0.7532446633,-0.6228744515,0.759797502,-1.4195273045,1
610,10,-0.7364913703,-0.633773753,0.759797502,-1.4332121534,1
611,10,0.5194754259,-0.6301406525,0.759797502,-1.4335883692,1
612,10,-1.3663739883,-0.6301406525,0.759797502,-1.377871137,1
613,10,0.5260689484,-0.619241351,0.759797502,-1.3527311664,1
614,10,-0.5975972649,-0.619241351,0.759797502,-1.4144013646,1
615,10,0.4492686784,-0.6301406525,0.759797502,-1.3795478918,1
616,10,0.0773076839,-0.6301406525,0.759797502,-1.3370436172,1
617,10,-1.2985609839,-0.6228744515,0.759797502,-1.3727500619,1
618,10,0.7016001368,-0.626507552,0.7352155896,-1.3311182187,1
619,10,-0.9231168866,-0.619241351,0.759797502,-1.333262,1
620,10,0.2610951163,-0.626507552,0.7352155896,-1.247458857,1
621,10,-0.9391133594,-0.626507552,0.7352155896,-1.1711000273,1
622,10,0.6124728299,-0.6228744515,0.7106336773,-1.2414394046,1
623,10,0.9230566826,-0.6301406525,0.7106336773,-1.3148436431,1
624,10,-0.5003713911,-0.6228744515,0.7106336773,-1.3043096014,1
625,10,-0.4507479243,-0.619241351,0.7106336773,-1.3359263212,1
626,10,0.0540439963,-0.6301406525,0.7352155896,-1.3364890232,1
627,10,-1.0360382243,-0.6156082505,0.7352155896,-1.5593222763,1
628,10,0.0919711174,-0.619241351,0.7106336773,-1.5626628129,1
629,10,1.1018989688,-0.61197515,0.7352155896,-1.637463266,1
630,10,-1.808814066,-0.6228744515,0.7352155896,-1.6996345447,1
631,10,-1.6205975027,-0.6083420495,0.7106336773,-1.7746636462,1
632,10,0.0334463875,-0.619241351,0.7106336773,-1.726537216,1
633,10,-0.1073397739,-0.6156082505,0.7352155896,-1.7419539547,1
634,10,0.954705618,-0.6228744515,0.7352155896,-1.6938015785,1
635,10,0.1542369578,-0.619241351,0.7352155896,-1.6764843015,1
636,10,1.1614127279,-0.6083420495,0.6860517649,-1.6562189198,1
637,10,0.8735622196,-0.61197515,0.6860517649,-1.6138962665,1
638,10,-0.8638611351,-0.6083420495,0.7106336773,-1.5978746636,1
639,10,0.7003100986,-0.61197515,0.7106336773,-1.5435277001,1
640,10,0.3458506215,-0.61197515,0.6860517649,-1.545801211,1
641,10,0.5136415811,-0.619241351,0.7106336773,-1.5465422912,1
642,10,0.6588998746,-0.6083420495,0.7106336773,-1.5256542075,1
643,10,-0.5920931022,-0.6047117852,0.7106336773,-1.5287871768,1
644,10,-0.3545970823,-0.619241351,0.6614698526,-1.465537521,1
645,10,-1.3048391695,-0.6156082505,0.6614698526,-1.5125936822,1
646,10,0.2548169308,-0.6047117852,0.6614698526,-1.4444629511,1
647,10,-0.6070145432,-0.6156082505,0.7106336773,-1.4433148443,1
648,10,-0.9705472885,-0.6083420495,0.7106336773,-1.5148217877,1
649,10,0.883624517,-0.6010786846,0.7106336773,-1.4872380362,1
650,10,0.1472564239,-0.5683807801,0.7106336773,-1.4647137382,1
651,10,1.597746625,-0.6083420495,0.6860517649,-1.4719121082,1
652,10,0.0417886341,-0.6083420495,0.6860517649,-1.3984478697,1
653,10,0.9747872116,-0.5974455841,0.6860517649,-1.3934662539,1
654,10,0.3366053483,-0.6010786846,0.6860517649,-1.3646403417,1
655,10,0.6148235718,-0.5974455841,0.6860517649,-1.4542283451,1
656,10,0.2898629667,-0.5974455841,0.6860517649,-1.5051666639,1
657,10,0.5266709662,-0.6083420495,0.6860517649,-1.4743121054,1
658,10,-0.9873607855,-0.6083420495,0.6860517649,-1.5371125725,1
659,10,0.2678033146,-0.5974455841,0.6860517649,-1.5295460949,1
660,10,1.3638627119,-0.5901793831,0.6614698526,-1.5707157765,1
661,10,0.7560970752,-0.6010786846,0.6614698526,-1.5292574465,1
662,10,-0.8593030004,-0.6010786846,0.6614698526,-1.5775395523,1
663,10,-0.1386016979,-0.6010786846,0.6860517649,-1.5833854914,1
664,10,-0.0170371047,-0.5938124836,0.6860517649,-1.5073526073,1
665,10,-1.5151583861,-0.5938124836,0.6860517649,-1.5472606687,1
666,10,1.0728301096,-0.5901793831,0.6860517649,-1.5283152855,1
667,10,-1.3845205247,-0.5829131821,0.6860517649,-1.4912142478,1
668,10,1.0612197664,-0.5829131821,0.6860517649,-1.4976504565,1
669,10,0.7415483176,-0.5829131821,0.6860517649,-1.4499018636,1
670,10,-0.3644443733,-0.5792800816,0.6860517649,-1.4058489421,1
671,10,0.2230389915,-0.5756469811,0.6860517649,-1.3940305776,1
672,10,-0.5297412592,-0.5720138806,0.6860517649,-1.3232728225,1
673,10,1.0136603606,-0.5829131821,0.6614698526,-1.3650619628,1
674,10,-0.4147988617,-0.5829131821,0.6614698526,-1.3373063196,1
675,10,-0.6107126525,-0.5756469811,0.6614698526,-1.3967743582,1
676,10,0.8254007961,-0.5756469811,0.6614698526,-1.3929894977,1
677,10,0.2922280366,-0.5720138806,0.6614698526,-1.5296887974,1
678,10,0.2050644602,-0.5829131821,0.6614698526,-1.5472217499,1
679,10,1.7691066901,-0.5829131821,0.6614698526,-1.6032487114,1
680,10,0.8914077471,-0.5829131821,0.6614698526,-1.5648390266,1
681,10,-0.7125826636,-0.5829131821,0.6614698526,-1.5850476516,1
682,10,0.8690040849,-0.5901793831,0.6614698526,-1.5537179585,1
683,10,-0.6769346099,-0.5938124836,0.6614698526,-1.4947850544,1
684,10,-0.2780548198,-0.5865462826,0.6614698526,-1.4490180809,1
685,10,-1.6916786037,-0.5865462826,0.6614698526,-1.3993689497,1
686,10,-0.0147150361,-0.5829131821,0.6368879402,-1.3152198589,1
687,10,-1.5698560029,-0.5901793831,0.6368879402,-1.3370079415,1
688,10,0.8189936067,-0.5829131821,0.6368879402,-1.3335506483,1
689,10,-0.1540391542,-0.5974455841,0.6368879402,-1.3490079275,1
690,10,-0.5656903218,-0.5938124836,0.6614698526,-1.3342933501,1
691,10,-1.4440342838,-0.5901793831,0.6614698526,-1.405000835,1
692,10,0.1535489375,-0.6010786846,0.6123060279,-1.4120143403,1
693,10,-1.3361010935,-0.5974455841,0.6123060279,-1.491460734,1
694,10,0.8535666286,-0.6010786846,0.6123060279,-1.5393682455,1
695,10,-1.0810175538,-0.5938124836,0.6123060279,-1.5534714723,1
696,10,1.2963650444,-0.5974455841,0.6368879402,-1.5903925102,1
697,10,0.5319601226,-0.6010786846,0.6368879402,-1.5500303952,1
698,10,1.6337386889,-0.5865462826,0.6368879402,-1.56005687,1
699,10,-1.2673420612,-0.5974455841,0.6123060279,-1.5383352738,1
700,10,0.8950198539,-0.5974455841,0.6123060279,-1.532662848,1
701,10,-0.7206239013,-0.5901793831,0.6123060279,-1.4656575209,1
702,10,-1.4606757757,-0.5974455841,0.6123060279,-1.4517002399,1
703,10,0.856490715,-0.5865462826,0.6123060279,-1.4990855899,1
704,10,0.4078584544,-0.5865462826,0.6123060279,-1.4869137123,1
705,10,-1.9784110789,-0.5938124836,0.6123060279,-1.4932023536,1
706,10,0.2884439247,-0.5465821771,0.6123060279,-1.4720904863,1
707,10,0.4690062618,-0.5901793831,0.6123060279,-1.4710218389,1
708,10,1.3465331997,-0.5792800816,0.5754331594,-1.514594761,1
709,10,-1.4766292473,-0.5756469811,0.5754331594,-1.4915142474,1
710,10,1.9320815073,-0.5865462826,0.5754331594,-1.49442019,1
711,10,-0.3806558525,-0.5792800816,0.5754331594,-1.4625764434,1
712,10,-2.7624102523,-0.5792800816,0.5754331594,-1.4904326271,1
713,10,1.8372207034,-0.5756469811,0.5754331594,-1.4810807461,1
714,10,-2.4971354114,-0.5829131821,0.5754331594,-1.4774677774,1
715,10,0.4443235322,-0.5792800816,0.5754331594,-1.4384305257,1
716,10,0.6306050383,-0.5829131821,0.6123060279,-1.4165889296,1
717,10,-1.2769456726,-0.5829131821,0.6123060279,-1.4458559224,1
718,10,0.5756494139,-0.5756469811,0.6123060279,-1.4287137803,1
719,10,-0.0260673716,-0.5683807801,0.5754331594,-1.3881327466,1
720,10,-1.642227142,-0.5683807801,0.5754331594,-1.424945136,1
721,10,1.1402991038,-0.5756469811,0.5754331594,-1.4136894735,1
722,10,0.0755876331,-0.5756469811,0.5754331594,-1.3821051861,1
723,10,0.8294859168,-0.5647476796,0.5754331594,-1.3965213855,1
724,10,-0.6214629703,-0.5720138806,0.5754331594,-1.3959878726,1
725,10,0.4908509074,-0.5683807801,0.6123060279,-1.3502079261,1
726,10,0.0050655486,-0.5647476796,0.6123060279,-1.3289484915,1
727,10,0.5605559678,-0.5720138806,0.6123060279,-1.3136598607,1
728,10,0.7468374739,-0.5683807801,0.5754331594,-1.3566684591,1
729,10,0.5146736116,-0.5683807801,0.5754331594,-1.3454565803,1
730,10,-1.5741131287,-0.5647476796,0.5754331594,-1.3809149172,1
731,10,-0.0573292956,-0.5647476796,0.6123060279,-1.289215565,1
732,10,1.0133593517,-0.5647476796,0.5631422032,-1.4173089288,1
733,10,-0.7315748974,-0.5611145791,0.5754331594,-1.4900142492,1
734,10,0.1922500814,-0.5611145791,0.5754331594,-1.5069861212,1
735,10,1.1087791721,-0.5611145791,0.5754331594,-1.4172359559,1
736,10,0.3254680191,-0.5502152776,0.5631422032,-1.4306986428,1
737,10,-1.1936808839,-0.5611145791,0.5754331594,-1.4732742687,1
738,10,1.4273325879,-0.5611145791,0.5754331594,-1.4754196716,1
739,10,0.6051912871,-0.5465821771,0.5754331594,-1.4613034719,1
740,10,-0.8079451547,-0.5429490766,0.5631422032,-1.3963770613,1
741,10,0.89489085,-0.5502152776,0.5631422032,-1.3694954711,1
742,10,0.7861406356,-0.5538483781,0.5631422032,-1.2907204281,1
743,10,-0.1064367472,-0.5502152776,0.5631422032,-1.2468264253,1
744,10,-1.4888846095,-0.5502152776,0.5631422032,-1.2867636759,1
745,10,1.4890824131,-0.5465821771,0.5631422032,-1.2653712685,1
746,10,0.9395691706,-0.5502152776,0.5385602908,-1.1301119672,1
747,10,0.3521718084,-0.5211533097,0.5385602908,-1.2065470129,1
748,10,-0.7883939044,-0.5138871087,0.5385602908,-1.2109302511,1
749,10,1.0563176215,-0.5066209077,0.5385602908,-1.284516111,1
750,10,0.5002681858,-0.5066209077,0.5754331594,-1.2873085402,1
751,10,1.3436951158,-0.5066209077,0.5754331594,-1.2459118318,1
752,10,0.5698872436,-0.4630265378,0.5631422032,-1.3198901237,1
753,10,-0.3606602615,-0.4630265378,0.5631422032,-1.2977712306,1
754,10,0.7789594233,-0.4484941358,0.5385602908,-1.3152685075,1
755,10,0.0058395715,-0.4448610353,0.5385602908,-1.2643334319,1
756,10,0.9695553846,-0.4375948343,0.5385602908,-1.3463030658,1
757,10,1.0728731108,-0.4048997659,0.5631422032,-1.209263226,1
758,10,0.3530748351,-0.4484941358,0.5631422032,-1.2311907679,1
759,10,-1.1225137803,-0.4484941358,0.5385602908,-1.2801247648,1
760,10,-1.4086442378,-0.4630265378,0.5385602908,-1.350728466,1
761,10,0.9854085256,-0.4593934373,0.5385602908,-1.4029981347,1
762,10,-0.6365994177,-0.4557603368,0.5385602908,-1.4234645972,1
763,10,0.3597830333,-0.4666596383,0.5385602908,-1.4302348596,1
764,10,-0.8328572187,-0.4630265378,0.5385602908,-1.4247537849,1
765,10,1.123829617,-0.4484941358,0.5385602908,-1.4456370037,1
766,10,0.4272090263,-0.4557603368,0.5385602908,-1.4093565056,1
767,10,0.8768303162,-0.4593934373,0.5385602908,-1.4766294,1
768,10,-0.3180460019,-0.4593934373,0.5385602908,-1.4783580466,1
769,10,-0.3655480784,-0.4666596383,0.5385602908,-1.495916945,1
770,10,1.265991819,-0.4702927388,0.5385602908,-1.4815493942,1
771,10,0.139358518,-0.4666596383,0.5385602908,-1.501315317,1
772,10,-2.0135431174,-0.4630265378,0.5385602908,-1.5357990605,1
773,10,1.1639498029,-0.4630265378,0.5385602908,-1.468761301,1
774,10,0.1875629429,-0.4666596383,0.5385602908,-1.4959558638,1
775,10,-1.4952917989,-0.4448610353,0.5385602908,-1.4962477554,1
776,10,-2.232591592,-0.4230624322,0.5385602908,-1.4759839953,1
777,10,1.5451560706,-0.4266955327,0.5385602908,-1.469925624,1
778,10,0.448580658,-0.4266955327,0.5385602908,-1.4364537712,1
779,10,-2.0205953258,-0.4339617337,0.5385602908,-1.4935299207,1
780,10,1.0208415729,-0.4157962312,0.5385602908,-1.4375564727,1
781,10,1.0972548315,-0.4230624322,0.5139783785,-1.4938266771,1
782,10,1.2161533459,-0.4085300302,0.5139783785,-1.5015147763,1
783,10,0.6451394679,-0.4085300302,0.5139783785,-1.4623364437,1
784,10,-0.925094945,-0.4230624322,0.5139783785,-1.4836023648,1
785,10,1.611378028,-0.4230624322,0.5139783785,-1.4815137186,1
786,10,0.3244359886,-0.4121631307,0.5139783785,-1.4427813314,1
787,10,-1.7637917352,-0.4121631307,0.5139783785,-1.4665234658,1
788,10,1.2692169144,-0.4121631307,0.5139783785,-1.4662088716,1
789,10,-0.4181529609,-0.4085300302,0.5139783785,-1.4976715375,1
790,10,0.9714331125,-0.4121631307,0.5139783785,-1.549728774,1
791,10,0.472532366,-0.4230624322,0.5385602908,-1.5016996409,1
792,10,-1.4127723598,-0.4230624322,0.5385602908,-1.4482299737,1
793,10,0.7026751685,-0.4157962312,0.5385602908,-1.4530964545,1
794,10,-1.0229228366,-0.4121631307,0.5139783785,-1.5064736894,1
795,10,1.0664229202,-0.4230624322,0.5139783785,-1.526479612,1
796,10,1.4569174624,-0.4230624322,0.5139783785,-1.5071288238,1
797,10,0.6998800859,-0.4157962312,0.4893964661,-1.5431612141,1
798,10,1.7172901585,-0.4085300302,0.5139783785,-1.5933130473,1
799,10,0.8052331999,-0.4121631307,0.5139783785,-1.5592817358,1
800,10,-0.8233969391,-0.4085300302,0.5139783785,-1.6222832838,1
801,10,0.5761797572,-0.4194293317,0.5385602908,-1.6100141089,1
802,10,-1.0216327985,-0.4121631307,0.4893964661,-1.4411207928,1
803,10,0.1449630113,-0.3867342633,0.4893964661,-1.3940467938,1
804,10,-0.5411795973,-0.3831011628,0.4893964661,-1.3547679208,1
805,10,-0.6486827749,-0.3685687608,0.5139783785,-1.318784179,1
806,10,-0.4967879576,-0.3758349618,0.5139783785,-1.3558479195,1
807,10,-0.2246902425,-0.3685687608,0.5139783785,-1.2882539445,1
808,10,0.207257525,-0.3685687608,0.5139783785,-1.2491615577,1
809,10,-2.1935034366,-0.3540363588,0.4893964661,-1.3132933747,1
810,10,1.1329458865,-0.3540363588,0.4893964661,-1.2715999099,1
811,10,-2.321131209,-0.3649356603,0.4893964661,-1.3175825588,1
812,10,0.0439816989,-0.3613025598,0.4893964661,-1.3126447268,1
813,10,-1.2780063764,-0.3613025598,0.4893964661,-1.3921365257,1
814,10,2.5989882197,-0.3540363588,0.4893964661,-1.4030792157,1
815,10,-1.6199094823,-0.3504032583,0.4893964661,-1.3760046527,1
816,10,0.1064195444,-0.3431370573,0.4893964661,-1.4997309946,1
817,10,-1.2660950243,-0.3395067929,0.4893964661,-1.5639455141,1
818,10,1.5126901109,-0.3504032583,0.4893964661,-1.5839173827,1
819,10,-0.4753016501,-0.3467701578,0.4893964661,-1.6463529854,1
820,10,1.1737970939,-0.3395067929,0.4893964661,-1.6459605534,1
821,10,-2.5006185143,-0.3504032583,0.4893964661,-1.7405561185,1
822,10,1.4135721812,-0.3540363588,0.5139783785,-1.7173280375,1
823,10,0.8751102654,-0.3467701578,0.5139783785,-1.674831871,1
824,10,-1.2653640027,-0.3322405919,0.5139783785,-1.7496128647,1
825,10,0.858081762,-0.3431370573,0.5139783785,-1.7351188275,1
826,10,-0.9951010143,-0.3540363588,0.4893964661,-1.6108524863,1
827,10,0.4399374025,-0.3431370573,0.4893964661,-1.6318394888,1
828,10,-0.5907600628,-0.3431370573,0.4893964661,-1.6136497803,1
829,10,0.8530506133,-0.3467701578,0.4893964661,-1.5190963773,1
830,10,-0.424044135,-0.3431370573,0.4893964661,-1.5216325906,1
831,10,1.1814083189,-0.3358736924,0.4893964661,-1.5943622353,1
832,10,0.663716017,-0.3286074914,0.4893964661,-1.5776336062,1
833,10,1.7357377038,-0.3286074914,0.4893964661,-1.6396686688,1
834,10,-2.1493411313,-0.3395067929,0.4893964661,-1.6487091988,1
835,10,-0.2427507763,-0.3395067929,0.4648145538,-1.555980118,1
836,10,1.0326669224,-0.3322405919,0.4648145538,-1.5461644538,1
837,10,-0.3680134788,-0.3431370573,0.4648145538,-1.4696077865,1
838,10,-1.9951815746,-0.3467701578,0.4648145538,-1.4876596573,1
839,10,0.9080922403,-0.3467701578,0.4648145538,-1.4737072412,1
840,10,0.6099214269,-0.3431370573,0.4648145538,-1.4235602728,1
841,10,0.4773485083,-0.3395067929,0.4648145538,-1.3370403739,1
842,10,-1.2666110396,-0.3504032583,0.4648145538,-1.3168317489,1
843,10,-2.2335232919,-0.3395067929,0.4648145538,-1.2991463642,1
844,10,1.3860513678,-0.3431370573,0.4648145538,-1.3020344689,1
845,10,-1.9553193964,-0.3576694593,0.4648145538,-1.289744213,1
846,10,1.1805052922,-0.3504032583,0.4648145538,-1.3164425602,1
847,10,0.2625571595,-0.3467701578,0.4648145538,-1.2862739468,1
848,10,0.5305840819,-0.3504032583,0.4402326415,-1.3121112139,1
849,10,-2.206575823,-0.3576694593,0.4893964661,-1.3598144014,1
850,10,0.2432925901,-0.3504032583,0.4893964661,-1.3080393267,1
851,10,-2.076152968,-0.3467701578,0.4893964661,-1.319718232,1
852,10,-0.871945374,-0.3540363588,0.4648145538,-1.2898447534,1
853,10,-2.0073509343,-0.3431370573,0.4648145538,-1.3711608746,1
854,10,1.509680022,-0.3395067929,0.4402326415,-1.381819781,1
855,10,1.8014866472,-0.3177081899,0.4402326415,-1.4315062095,1
856,10,0.0418316353,-0.3286074914,0.4402326415,-1.4364651226,1
857,10,-0.5857719153,-0.3213412904,0.4402326415,-1.4764980488,1
858,10,1.2180884031,-0.3213412904,0.4402326415,-1.483145068,1
859,10,0.2513194998,-0.3140750894,0.4402326415,-1.450509971,1
860,10,1.6112060229,-0.3140750894,0.4648145538,-1.4834888514,1
861,10,-1.9227674342,-0.3213412904,0.4648145538,-1.4790845322,1
862,10,0.9673479917,-0.2886433859,0.4402326415,-1.4025635406,1
863,10,0.1574190519,-0.2886433859,0.4402326415,-1.3587506188,1
864,10,-0.5561010383,-0.27411382,0.4402326415,-1.3149101295,1
865,10,-1.8645867145,-0.27411382,0.4402326415,-1.2786620638,1
866,10,-1.846096168,-0.3068088884,0.4402326415,-1.343176583,1
867,10,1.5247304668,-0.3031757879,0.4402326415,-1.3623052093,1
868,10,0.4365833034,-0.3031757879,0.4402326415,-1.3582025114,1
869,10,-2.0350294248,-0.2995426874,0.4402326415,-1.4227040576,1
870,10,0.7324750494,-0.3031757879,0.4402326415,-1.4677315725,1
871,10,-2.0739599032,-0.3031757879,0.4402326415,-1.5292542033,1
872,10,0.2967861713,-0.2922764864,0.4402326415,-1.5203109705,1
873,10,-1.5668889152,-0.2922764864,0.4402326415,-1.5637136225,1
874,10,-0.025322022,-0.2995426874,0.4156507291,-1.5124834121,1
875,10,-2.2686696584,-0.2850102854,0.4156507291,-1.5488466128,1
876,10,1.477644075,-0.2777440844,0.4402326415,-1.5400347312,1
877,10,1.3403840179,-0.2886433859,0.4402326415,-1.4623932004,1
878,10,0.8343880617,-0.27411382,0.4402326415,-1.3891105833,1
879,10,-0.2813659177,-0.2813771849,0.4402326415,-1.3740489793,1
880,10,1.7406398487,-0.2813771849,0.4156507291,-1.457098612,1
881,10,-0.2855800423,-0.266847619,0.4156507291,-1.4940553255,1
882,10,-0.698521248,-0.27411382,0.4156507291,-1.490364519,1
883,10,0.6992780681,-0.259581418,0.4156507291,-1.5752968522,1
884,10,0.9770232777,-0.259581418,0.4156507291,-1.6376432658,1
885,10,0.8501265269,-0.2704807195,0.4156507291,-1.6328302985,1
886,10,0.8064802368,-0.2559483175,0.4402326415,-1.5213325909,1
887,10,0.1049144999,-0.252315217,0.4402326415,-1.6137795099,1
888,10,0.8978149365,-0.2632145185,0.4402326415,-1.6221049056,1
889,10,0.5371202751,-0.245049016,0.4402326415,-1.6946869829,1
890,10,-1.3090962953,-0.2486821165,0.4402326415,-1.6510540609,1
891,10,1.4640556734,-0.259581418,0.4402326415,-1.6449616356,1
892,10,-0.1386877004,-0.259581418,0.4402326415,-1.6159703182,1
893,10,0.9707020909,-0.245049016,0.4156507291,-1.7230604633,1
894,10,-0.8693509698,-0.2341497145,0.4402326415,-1.7125069621,1
895,10,-2.3940613647,-0.2341497145,0.4402326415,-1.787900928,1
896,10,1.1940936939,-0.237782815,0.4402326415,-1.7765204008,1
897,10,-0.0167360958,-0.2486821165,0.4402326415,-1.7262874865,1
898,10,-2.6502342643,-0.2414159155,0.4648145538,-1.7694306793,1
899,10,1.5201723321,-0.2414159155,0.4402326415,-1.747193408,1
900,10,0.6826365762,-0.252315217,0.4402326415,-1.699070221,1
901,10,-1.7572125407,-0.2414159155,0.4156507291,-1.617071398,1
902,10,0.411284228,-0.2486821165,0.4156507291,-1.5794433338,1
903,10,0.392722007,-0.2341497145,0.4156507291,-1.5508185024,1
904,10,1.5412429549,-0.2341497145,0.4156507291,-1.5605384911,1
905,10,1.5089920016,-0.2341497145,0.4402326415,-1.5499282332,1
906,10,-1.7369159408,-0.2414159155,0.4402326415,-1.5568833602,1
907,10,-0.1658215025,-0.237782815,0.4156507291,-1.5294747436,1
908,10,0.1266731431,-0.2341497145,0.4156507291,-1.3964694937,1
909,10,-2.0574474151,-0.2414159155,0.4156507291,-1.4106262339,1
910,10,1.5693371129,-0.2414159155,0.4156507291,-1.3748597892,1
911,10,0.4601910012,-0.237782815,0.3787778606,-1.3249560637,1
912,10,0.8308189562,-0.2014546461,0.4402326415,-1.3732576289,1
913,10,-0.2055116756,-0.2050877466,0.4402326415,-1.3687900665,1
914,10,-1.7978917431,-0.2050877466,0.4402326415,-1.432604046,1
915,10,1.4977256686,-0.2050877466,0.4402326415,-1.4359186367,1
916,10,0.1410355676,-0.194188445,0.4402326415,-1.3903170684,1
917,10,0.0882730081,-0.2014546461,0.4402326415,-1.3556403522,1
918,10,0.5188447349,-0.165123641,0.4402326415,-1.3318171368,1
919,10,1.6557123384,-0.1287954721,0.4402326415,-1.3294576801,1
920,10,0.7449167447,-0.1360616731,0.4156507291,-1.2986014999,1
921,10,-0.8166027382,-0.1360616731,0.4156507291,-1.3209830954,1
922,10,0.0656973408,-0.1287954721,0.4156507291,-1.3521960319,1
923,10,-0.7806536756,-0.1178961706,0.4402326415,-1.3566035943,1
924,10,-0.0988685235,-0.1324285726,0.4402326415,-1.3697873627,1
925,10,-0.3911194894,-0.1360616731,0.4402326415,-1.356843594,1
926,10,1.2178303955,-0.1324285726,0.4156507291,-1.3890570699,1
927,10,0.4313801496,-0.1396947736,0.4156507291,-1.3503814394,1
928,10,-2.0303566143,-0.15785744,0.4156507291,-1.4159743357,1
929,10,-0.5836218518,-0.179656043,0.4156507291,-1.3922857148,1
930,10,-2.4706896297,-0.1978215456,0.4156507291,-1.4412375494,1
931,10,1.3691948695,-0.2014546461,0.4156507291,-1.4389234981,1
932,10,0.3328642377,-0.194188445,0.4156507291,-1.4208408165,1
933,10,-2.1107689912,-0.1978215456,0.4402326415,-1.4653250888,1
934,10,1.0231206403,-0.2014546461,0.4402326415,-1.4718050813,1
935,10,1.5415869651,-0.2196173124,0.4402326415,-1.4958553234,1
936,10,-0.9745034055,-0.2087180109,0.4156507291,-1.4824120959,1
937,10,-2.0576194202,-0.2123511114,0.4156507291,-1.4670488706,1
938,10,1.4271605829,-0.2123511114,0.4156507291,-1.5337882521,1
939,10,0.7386242311,-0.2232504129,0.3787778606,-1.5720260452,1
940,10,-1.9016108089,-0.2196173124,0.3787778606,-1.6255492259,1
941,10,1.0438042516,-0.2268835134,0.3664869044,-1.5805395488,1
942,10,1.5498432091,-0.2232504129,0.4156507291,-1.6184692342,1
943,10,-1.3496894952,-0.2232504129,0.4156507291,-1.6211870688,1
944,10,0.8240247554,-0.2305166139,0.4156507291,-1.6074389768,1
945,10,0.0423906519,-0.2087180109,0.4402326415,-1.5608433556,1
946,10,-0.5659053281,-0.2123511114,0.4156507291,-1.5077401744,1
947,10,-0.692974084,-0.2123511114,0.4156507291,-1.5620547055,1
948,10,0.6694781873,-0.1978215456,0.4156507291,-1.5490541802,1
949,10,-2.293524393,-0.2123511114,0.4156507291,-1.565779566,1
950,10,1.4285366235,-0.2196173124,0.4156507291,-1.5439687807,1
951,10,0.6351201718,-0.2196173124,0.4156507291,-1.4918110038,1
952,10,-0.6789556697,-0.1832891435,0.3787778606,-1.3057495997,1
953,10,1.5329867109,-0.1287954721,0.3787778606,-1.3489122519,1
954,10,0.7348401193,-0.1287954721,0.3787778606,-1.3312057862,1
955,10,-0.76752396,-0.1324285726,0.3787778606,-1.3440814468,1
956,10,1.1006949332,-0.1542243395,0.3787778606,-1.3056506809,1
957,10,-0.1080277942,-0.15785744,0.3787778606,-1.303031765,1
958,10,0.7315290214,-0.1760229425,0.3787778606,-1.3547014344,1
959,10,-0.7861148371,-0.1178961706,0.4156507291,-1.282464762,1
960,10,1.3441681298,-0.1142630701,0.4156507291,-1.2460350749,1
961,10,1.0779902621,-0.1033637686,0.3787778606,-1.2086956591,1
962,10,-0.329957354,-0.1178961706,0.3787778606,-1.1835378506,1
963,10,0.5233168671,-0.1251623716,0.4402326415,-1.210069171,1
964,10,0.8945468399,-0.1178961706,0.3787778606,-1.1347173672,1
965,10,-0.5233340698,-0.1687567415,0.3787778606,-1.1290838602,1
966,10,0.5943119655,-0.1687567415,0.3787778606,-1.1110644218,1
967,10,-1.1009271423,-0.1614905405,0.4402326415,-1.1068092917,1
968,10,-1.7943656389,-0.1614905405,0.4402326415,-1.1731108358,1
969,10,-0.8982191506,-0.1687567415,0.4402326415,-1.6739188991,1
970,10,-3.1760824797,-0.15785744,0.3787778606,-1.8684938068,1
971,10,2.5453226335,-0.143325038,0.3787778606,-1.8522678798,1
3888,10,1.326121924,-0.3541753299,0.5385602908,-0.1296536771,0
3889,10,0.3495802594,0.005442061,0.5385602908,-0.1146645054,0
3890,10,-1.5311577314,-0.1834479676,0.5385602908,-0.0297581182,0
3891,10,1.5270582632,-0.3105866322,0.5385602908,0.2596031652,0
3892,10,1.9126248598,-0.3251161981,0.5385602908,0.2154178114,0
3893,10,-4.3711107299,-0.3360126635,0.5631422032,0.2074142532,0
3894,10,-1.9080896728,-0.3469091288,0.5631422032,0.2326923858,0
3895,10,0.2183289246,-0.3360126635,0.5631422032,0.3298836236,0
3896,10,-0.150025708,-0.3251161981,0.5631422032,0.3621430453,0
3897,10,1.9940520666,-0.3069535317,0.5385602908,0.4019889447,0
3898,10,0.7067889625,-0.3033204312,0.5385602908,0.4340607991,0
3899,10,-0.390786952,-0.2815246644,0.5385602908,0.3177544486,0
3900,10,-1.0618131862,-0.2669950985,0.5385602908,0.251901012,0
3901,10,0.7671832157,-0.2742612995,0.5385602908,0.2915236684,0
3902,10,0.1904411555,-0.2778915638,0.5385602908,0.3053214901,0
3903,10,0.8503788068,-0.2742612995,0.5385602908,0.309115756,0
3904,10,-0.830363145,-0.2924239659,0.5385602908,0.3715673587,0
3905,10,0.6016709107,-0.2960542302,0.5385602908,0.4144392004,0
3906,10,-0.3885050121,-0.2996873307,0.5385602908,0.4812283116,0
3907,10,-0.826338226,-0.3033204312,0.5385602908,0.5139990841,0
3908,10,0.6054320942,-0.2924239659,0.5631422032,0.5559833593,0
3909,10,-0.4355426749,-0.2924239659,0.5631422032,0.5844141369,0
3910,10,-0.32948434,-0.2924239659,0.5631422032,0.5917881823,0
3911,10,0.8227318448,-0.2924239659,0.5631422032,0.6302243536,0
3912,10,-0.3057591111,-0.2924239659,0.5631422032,0.642351907,0
3913,10,-0.3346903663,-0.2960542302,0.5631422032,0.649665412,0
3914,10,0.8706688533,-0.2996873307,0.5631422032,0.6788540265,0
3915,10,0.0884994872,-0.3069535317,0.5631422032,0.6805282948,0
3916,10,-1.3272973057,-0.3105866322,0.5631422032,0.6771421366,0
3917,10,0.9330444502,-0.3105866322,0.5631422032,0.7013258921,0
3918,10,-0.4365517771,-0.2996873307,0.5631422032,0.6924069836,0
3919,10,-0.9085681289,-0.3033204312,0.5631422032,0.7034507545,0
3920,10,0.844805842,-0.2996873307,0.5631422032,0.7308128847,0
3921,10,0.3127597158,-0.3069535317,0.5631422032,0.7304663986,0
3922,10,-0.9131778652,-0.3069535317,0.5631422032,0.7194896547,0
3923,10,-0.024794534,-0.3069535317,0.5631422032,0.7358397977,0
3924,10,0.6870771799,-0.3105866322,0.5754331594,0.7645701425,0
3925,10,-0.0595624893,-0.3214830976,0.5754331594,0.7477615135,0
3926,10,-0.9875069898,-0.3142168966,0.5754331594,0.74918962,0
3927,10,0.7137035669,-0.3251161981,0.5754331594,0.7725890521,0
3928,10,0.2443614813,-0.3251161981,0.5631422032,0.788295304,0
3929,10,-0.7304969931,-0.3178499971,0.5631422032,0.7635177113,0
3930,10,-0.1374005348,-0.3214830976,0.5631422032,0.7783993156,0
3931,10,0.5297154562,-0.3251161981,0.5631422032,0.8045544201,0
3932,10,-0.8532283484,-0.3251161981,0.5754331594,0.767122572,0
3933,10,0.7482536433,-0.3360126635,0.5754331594,0.786457144,0
3934,10,0.0548896937,-0.3360126635,0.5754331594,0.775993913,0
3935,10,-0.9049904232,-0.339645764,0.5754331594,0.7529225886,0
3936,10,0.7129467445,-0.332379563,0.5631422032,0.7632247387,0
3937,10,-0.1376183964,-0.3432788645,0.5631422032,0.7465409744,0
3938,10,-1.1833978523,-0.332379563,0.5631422032,0.7183345209,0
3939,10,1.0518655623,-0.332379563,0.5631422032,0.728528563,0
3940,10,0.3654735291,-0.3360126635,0.5631422032,0.703451295,0
3941,10,-1.177561135,-0.3360126635,0.5631422032,0.6633243149,0
3942,10,1.0322921922,-0.3360126635,0.5631422032,0.6669502566,0
3943,10,0.6690166461,-0.3360126635,0.5631422032,0.6406735306,0
3944,10,-0.8315901088,-0.339645764,0.5754331594,0.5923881816,0
3945,10,0.1064338725,-0.3469091288,0.5754331594,0.5948968273,0
3946,10,-0.0468570585,-0.3469091288,0.5754331594,0.5278006896,0
3947,10,-1.0017490108,-0.3469091288,0.5754331594,0.5215644806,0
3948,10,1.0151940784,-0.3432788645,0.5754331594,0.5337282502,0
3949,10,0.5089831158,-0.3541753299,0.5754331594,0.4741979414,0
3950,10,-1.2697673329,-0.3505422294,0.5754331594,0.4611331999,0
3951,10,0.7446759376,-0.3432788645,0.5754331594,0.4797461511,0
3952,10,0.8332700287,-0.3432788645,0.6123060279,0.4748948054,0
3953,10,-0.3777145656,-0.3505422294,0.6123060279,0.4161910903,0
3954,10,-1.2607198654,-0.3469091288,0.6123060279,0.4196089241,0
3955,10,0.9569760852,-0.3469091288,0.6123060279,0.4532265065,0
3956,10,0.5458741126,-0.3469091288,0.5631422032,0.4360402563,0
3957,10,-0.7739798784,-0.3578084304,0.5631422032,0.4193737893,0
3958,10,-0.3680937536,-0.3614415309,0.5631422032,0.4457370017,0
3959,10,0.8899743771,-0.3614415309,0.5631422032,0.4797315566,0
3960,10,-1.3120920563,-0.3650717952,0.5754331594,0.4387973341,0
3961,10,0.879447666,-0.3650717952,0.5754331594,0.468238597,0
3962,10,0.4327619181,-0.3578084304,0.5754331594,0.4640423857,0
3963,10,-1.120180239,-0.3578084304,0.5754331594,0.4438986255,0
3964,10,0.183813232,-0.3541753299,0.6123060279,0.4685375156,0
3965,10,0.7160542916,-0.3541753299,0.6123060279,0.4862034409,0
3966,10,-0.3283491064,-0.3578084304,0.6123060279,0.4382297672,0
3967,10,-0.9741937963,-0.3578084304,0.6123060279,0.445504029,0
3968,10,1.1253117332,-0.3650717952,0.5754331594,0.4781542611,0
3969,10,0.5055200686,-0.3687048957,0.5754331594,0.4412645745,0
3970,10,-1.1486216924,-0.3723379962,0.5754331594,0.4241975674,0
3971,10,-0.195125441,-0.3723379962,0.5754331594,0.4460705148,0
3972,10,0.9493046584,-0.3723379962,0.6123060279,0.4709462695,0
3973,10,0.1359499449,-0.3650717952,0.6123060279,0.4161683876,0
3974,10,0.9730872338,-0.3614415309,0.6123060279,0.4420921411,0
3975,10,0.6424017146,-0.3650717952,0.6123060279,0.4300191822,0
3976,10,-0.7497615625,-0.3687048957,0.6123060279,0.4047294821,0
3977,10,-0.5302142732,-0.3687048957,0.6123060279,0.4170591974,0
3978,10,1.0717264045,-0.3650717952,0.6123060279,0.4529759121,0
3979,10,0.2940340899,-0.3796041972,0.6123060279,0.4191381139,0
3980,10,-1.5288299178,-0.3832344616,0.6123060279,0.4095121792,0
3981,10,0.8959142803,-0.3832344616,0.6123060279,0.439971603,0
3982,10,0.8447140945,-0.3832344616,0.6123060279,0.4620448745,0
3983,10,-0.5292510447,-0.3796041972,0.6123060279,0.3929921985,0
3984,10,-1.1741398851,-0.3723379962,0.6368879402,0.3823868055,0
3985,10,1.1292334491,-0.3759710967,0.6368879402,0.4105819076,0
3986,10,0.4686307231,-0.3759710967,0.6368879402,0.38915923,0
3987,10,-1.312550725,-0.3796041972,0.6368879402,0.3648419611,0
3988,10,0.736442639,-0.3832344616,0.5754331594,0.4054629947,0
3989,10,-0.6055639728,-0.3905006626,0.5754331594,0.3588019682,0
3990,10,-0.3536109255,-0.3905006626,0.5754331594,0.3655133117,0
3991,10,0.7617044409,-0.3868675621,0.5754331594,0.3937294949,0
3992,10,-0.4216561368,-0.3868675621,0.5754331594,0.3539061901,0
3993,10,-1.2590227429,-0.3941337631,0.5754331594,0.3441619853,0
3994,10,1.173427283,-0.3905006626,0.5754331594,0.3700770901,0
3995,10,0.6100991598,-0.3832344616,0.5754331594,0.357804672,0
3996,10,-1.2433932257,-0.3868675621,0.6123060279,0.3164809366,0
3997,10,0.0059026458,-0.3905006626,0.6123060279,0.3336992948,0
3998,10,1.0894838826,-0.3868675621,0.6123060279,0.3720566554,0
3999,10,0.0642582258,-0.3905006626,0.6123060279,0.3167225579,0
4000,10,-1.4778017543,-0.3941337631,0.6123060279,0.2971106889,0
4001,10,1.1775668778,-0.401397128,0.6123060279,0.3230203884,0
4002,10,-1.0917076698,-0.4050302285,0.6123060279,0.2635496471,0
4003,10,-0.1630522206,-0.4050302285,0.6123060279,0.2745199045,0
4004,10,0.9570448872,-0.4050302285,0.6123060279,0.3070491638,0
4005,10,-0.175562718,-0.401397128,0.6123060279,0.2444134532,0
4006,10,-1.0060262096,-0.401397128,0.6123060279,0.2210383454,0
4007,10,1.1489452318,-0.3977668636,0.6123060279,0.2387458923,0
4008,10,0.4045072277,-0.3977668636,0.6123060279,0.194356755,0
4009,10,-1.5522570103,-0.3977668636,0.6123060279,0.1487741056,0
4010,10,0.7841797777,-0.408663329,0.6123060279,0.1619730091,0
4011,10,1.1321689911,-0.4122964295,0.6123060279,0.1645919249,0
4012,10,-0.1044034063,-0.4122964295,0.6123060279,0.0819878052,0
4013,10,-1.671445078,-0.4159266939,0.6123060279,0.0711698719,0
4014,10,0.9088605354,-0.4159266939,0.6123060279,0.099443893,0
4015,10,0.996904193,-0.4195597944,0.6123060279,0.0985552453,0
4016,10,-1.4588238486,-0.408663329,0.6123060279,0.0437704445,0
4017,10,0.8332012266,-0.4050302285,0.6123060279,0.0800107265,0
4018,10,0.8226401145,-0.4122964295,0.6123060279,0.090498498,0
4019,10,-0.217096218,-0.408663329,0.6123060279,0.0465412521,0
4020,10,-1.149363774,-0.4122964295,0.6368879402,0.0621682608,0
4021,10,0.8812365189,-0.4122964295,0.6368879402,0.1071195597,0
4022,10,-0.6575553647,-0.4195597944,0.6368879402,0.0996414062,0
4023,10,-0.9645156378,-0.4231928949,0.6368879402,0.1280406163,0
4024,10,0.924444196,-0.4231928949,0.6368879402,0.1808794734,0
4025,10,0.3345044266,-0.4195597944,0.6368879402,0.1794427184,0
4026,10,-1.125363337,-0.4268259954,0.6368879402,0.1795481236,0
4027,10,-0.1185487776,-0.4159266939,0.6368879402,0.2155415951,0
4028,10,0.8127899509,-0.4159266939,0.6368879402,0.2526620922,0
4029,10,-1.5665907788,-0.4195597944,0.6368879402,0.2322248188,0
4030,10,0.8884951334,-0.4122964295,0.6368879402,0.2696496399,0
4031,10,0.4855101496,-0.4159266939,0.6123060279,0.2774690903,0
4032,10,-1.16640375,-0.4195597944,0.6123060279,0.2481761515,0
4033,10,0.8965105703,-0.4340893602,0.6123060279,0.2809307078,0
4034,10,-0.5206966642,-0.4340893602,0.6368879402,0.2331442772,0
4035,10,-0.415349278,-0.4340893602,0.6368879402,0.23840319,0
4036,10,0.9537423896,-0.4377224607,0.6368879402,0.2691642351,0
4037,10,-0.1383866915,-0.4304590959,0.6368879402,0.2193605095,0
4038,10,-1.0797705169,-0.4340893602,0.6123060279,0.207755442,0
4039,10,1.2068650714,-0.4268259954,0.6123060279,0.227628608,0
4040,10,0.5152555564,-0.4268259954,0.6123060279,0.1916227041,0
4041,10,-1.3591297018,-0.4304590959,0.6123060279,0.1552703142,0
4042,10,1.1066205083,-0.4304590959,0.6123060279,0.1882151405,0
4043,10,-0.1784180024,-0.4268259954,0.6123060279,0.1289200747,0
4044,10,-1.5924832717,-0.4377224607,0.6123060279,0.1323276383,0
4045,10,1.0337591547,-0.4413555612,0.6123060279,0.1679692183,0
4046,10,0.801277083,-0.4413555612,0.6123060279,0.1705557017,0
4047,10,-0.6809939299,-0.4449886617,0.6123060279,0.1337600691,0
4048,10,-0.3501937521,-0.4377224607,0.6123060279,0.1472560533,0
4049,10,0.813420642,-0.4377224607,0.6123060279,0.1835032542,0
4050,10,-0.110762675,-0.4340893602,0.6123060279,0.1541162615,0
4051,10,-1.4331492345,-0.4340893602,0.6123060279,0.1579232841,0
4052,10,0.9305757644,-0.4304590959,0.6123060279,0.1965843199,0
4053,10,0.5203239786,-0.4340893602,0.6123060279,0.2015394493,0
4054,10,-1.2219613922,-0.4377224607,0.6123060279,0.1798432584,0
4055,10,0.1684933068,-0.4413555612,0.6123060279,0.2085129547,0
4056,10,-0.4787388793,-0.4377224607,0.6123060279,0.1951859432,0
4057,10,-0.9482095559,-0.4340893602,0.6123060279,0.2040665815,0
4058,10,1.162613891,-0.4340893602,0.6123060279,0.2374540019,0
4059,10,0.3957693694,-0.4413555612,0.6123060279,0.1948772949,0
4060,10,-1.4452583924,-0.4377224607,0.6123060279,0.1771102887,0
4061,10,0.8519727091,-0.4304590959,0.6123060279,0.195887564,0
4062,10,0.8230643994,-0.4340893602,0.6123060279,0.1923767573,0
4063,10,-0.7989206156,-0.4340893602,0.6123060279,0.1534986406,0
4064,10,-0.3400225239,-0.4413555612,0.6123060279,0.1648746273,0
4065,10,1.1930129343,-0.4377224607,0.6123060279,0.1964508066,0
4066,10,0.164035107,-0.4486217622,0.6123060279,0.158403824,0
4067,10,-1.7625848271,-0.4486217622,0.6123060279,0.1525357228,0
4068,10,0.9157063377,-0.4449886617,0.6123060279,0.1860854133,0
4069,10,0.8239817541,-0.4522520266,0.6123060279,0.1982005343,0
4070,10,-0.0462492957,-0.4522520266,0.6123060279,0.1907556781,0
4071,10,0.8357469019,-0.4486217622,0.6123060279,0.2214896962,0
4072,10,-0.5276112686,-0.4413555612,0.6123060279,0.1867626017,0
4073,10,0.0701866735,-0.4449886617,0.6123060279,0.1996297218,0
4074,10,0.8516057706,-0.4486217622,0.6123060279,0.2287621202,0
4075,10,-0.3040963896,-0.4449886617,0.6123060279,0.2003664777,0
4076,10,-0.6296790855,-0.4449886617,0.6123060279,0.2164621346,0
4077,10,1.0520031664,-0.4558851271,0.6123060279,0.2524296601,0
4078,10,0.2200833765,-0.4558851271,0.6123060279,0.2223779114,0
4079,10,-1.6112776996,-0.4558851271,0.6123060279,0.2243150983,0
4080,10,0.6138161208,-0.4522520266,0.6123060279,0.2562923583,0
4081,10,1.0174874738,-0.4595182276,0.6123060279,0.2800436819,0
4082,10,0.0191126362,-0.4558851271,0.6123060279,0.2431329142,0
4083,10,-1.5961297795,-0.4522520266,0.6123060279,0.2565499796,0
4084,10,0.9248799365,-0.4522520266,0.6123060279,0.3238247118,0
4085,10,0.0634555469,-0.4522520266,0.6123060279,0.2821301659,0
4086,10,-1.457723016,-0.4522520266,0.6123060279,0.2940506925,0
4087,10,0.7624956643,-0.4631513281,0.6123060279,0.3489625202,0
4088,10,-0.137217057,-0.4558851271,0.6123060279,0.3164149907,0
4089,10,-1.1698782527,-0.4631513281,0.6368879402,0.3333722682,0
4090,10,0.9723418669,-0.4631513281,0.6368879402,0.3743803283,0
4091,10,0.5045797856,-0.4667844286,0.6368879402,0.3853941533,0
4092,10,-0.7899992795,-0.4631513281,0.6368879402,0.3647684477,0
4093,10,-0.8066878664,-0.4558851271,0.6123060279,0.3901105802,0
4094,10,0.9364272054,-0.4522520266,0.6123060279,0.4352916085,0
4095,10,0.247145504,-0.4558851271,0.6123060279,0.4066419123,0
4096,10,-1.3694958806,-0.4595182276,0.6123060279,0.3989894888,0
4097,10,0.716008435,-0.4595182276,0.6123060279,0.4449786242,0
4098,10,-0.4715146657,-0.4595182276,0.6123060279,0.398829489,0
4099,10,-1.0244880829,-0.4667844286,0.6123060279,0.4086938017,0
4100,10,0.952572755,-0.4667844286,0.6123060279,0.444772138,0
4101,10,0.3925700749,-0.470414693,0.6123060279,0.4156856855,0
4102,10,-1.1978692077,-0.470414693,0.6123060279,0.3963813837,0
4103,10,0.6450161919,-0.4740477935,0.6123060279,0.4158575772,0
4104,10,0.593231206,-0.4740477935,0.6123060279,0.432893341,0
4105,10,-0.789070452,-0.4667844286,0.5754331594,0.3870603135,0
4106,10,-0.3788956729,-0.4631513281,0.5754331594,0.3958689519,0
4107,10,0.9318903649,-0.4667844286,0.5754331594,0.4278532388,0
4108,10,-0.0551133025,-0.4558851271,0.5754331594,0.3757516781,0
4109,10,-1.1895900354,-0.4631513281,0.6123060279,0.3707949271,0
4110,10,1.105898087,-0.4631513281,0.6123060279,0.3986721918,0
4111,10,-1.4112128413,-0.4667844286,0.6123060279,0.3362673999,0
4112,10,0.7284272021,-0.477680894,0.6123060279,0.3542960275,0
4113,10,0.8373752224,-0.477680894,0.6123060279,0.3671366611,0
4114,10,-0.4902746926,-0.4813139945,0.6123060279,0.3051733822,0
4115,10,-0.3862460178,-0.4740477935,0.6123060279,0.3035474382,0
4116,10,1.0266610725,-0.4740477935,0.6123060279,0.3321695669,0
4117,10,0.1331634625,-0.4740477935,0.5754331594,0.2840128664,0
4118,10,-1.7476547858,-0.470414693,0.5754331594,0.2773490904,0
4119,10,1.0923211581,-0.4631513281,0.5754331594,0.3045797613,0
4120,10,-0.3862091571,-0.470414693,0.6123060279,0.2564161419,0
4121,10,-1.4841888707,-0.477680894,0.6123060279,0.2590983009,0
4122,10,1.1944921781,-0.4813139945,0.6123060279,0.2970879863,0
4123,10,0.7272231665,-0.477680894,0.6123060279,0.293528531,0
4124,10,-0.571334961,-0.4849442589,0.6123060279,0.2592426251,0
4125,10,0.9379408501,-0.4849442589,0.6123060279,0.3014096028,0
4126,10,0.166773256,-0.4885773594,0.6123060279,0.2769328747,0
4127,10,-1.4157996493,-0.4813139945,0.6123060279,0.252624795,0
4128,10,1.0261794583,-0.4740477935,0.6123060279,0.2721031506,0
4129,10,0.4996030937,-0.4740477935,0.6123060279,0.2934463689,0
4130,10,-1.1196756964,-0.477680894,0.6123060279,0.2438431836,0
4131,10,-0.0561797341,-0.4813139945,0.6123060279,0.2547966843,0
4132,10,0.8107144344,-0.4813139945,0.6368879402,0.2956755555,0
4133,10,-0.3929312878,-0.4885773594,0.6368879402,0.2483253406,0
4134,10,-1.0472861356,-0.4885773594,0.6368879402,0.2355404906,0
4135,10,1.0396761296,-0.4885773594,0.6368879402,0.2608829475,0
4136,10,0.1313860824,-0.4922104599,0.6368879402,0.2447475069,0
4137,10,-1.5188421674,-0.4885773594,0.6368879402,0.1976243187,0
4138,10,0.5885870687,-0.4849442589,0.6368879402,0.2102324121,0
4139,10,-1.3927050942,-0.4813139945,0.6368879402,0.1382816854,0
4140,10,0.5901924438,-0.4813139945,0.6123060279,0.1317773687,0
4141,10,0.7715431317,-0.4813139945,0.6123060279,0.1481822144,0
4142,10,-0.893764219,-0.4813139945,0.6123060279,0.0747623002,0
4143,10,0.0987968467,-0.4849442589,0.6123060279,0.0573428611,0
4144,10,1.2074842897,-0.4922104599,0.6368879402,0.0771660812,0
4145,10,-0.1739344147,-0.4922104599,0.6368879402,0.0051531924,0
4146,10,-1.4743960537,-0.4958435604,0.6368879402,-0.0201716429,0
4147,10,1.4262747567,-0.4922104599,0.6368879402,-0.0004890713,0
4148,10,1.0150916837,-0.4849442589,0.6368879402,-0.0079873328,0
4149,10,-0.7346595162,-0.4849442589,0.6368879402,-0.0773904949,0
4150,10,-1.0867309951,-0.4885773594,0.6368879402,-0.0614445676,0
4151,10,1.3350661883,-0.4922104599,0.6368879402,-0.0086024672,0
4152,10,-0.9093249513,-0.4885773594,0.6368879402,-0.0641586185,0
4153,10,-0.4699207634,-0.4885773594,0.6368879402,-0.0413435101,0
4154,10,1.0390913123,-0.4922104599,0.6368879402,0.0119639952,0
4155,10,0.27517086,-0.4994766609,0.6368879402,-0.0101592222,0
4156,10,-1.2524406931,-0.5031069252,0.6123060279,-0.0189775902,0
4157,10,0.4236800496,-0.5031069252,0.6123060279,0.0155758829,0
4158,10,0.6062806469,-0.5031069252,0.6123060279,0.0582369141,0
4159,10,-0.5150204965,-0.5031069252,0.6123060279,0.0290055969,0
4160,10,-1.0139384435,-0.4958435604,0.6123060279,0.0546585399,0
4161,10,0.885571047,-0.4958435604,0.6123060279,0.0933469271,0
4162,10,0.1509504395,-0.4922104599,0.6123060279,0.1080487478,0
4163,10,-1.4011677444,-0.4958435604,0.6123060279,0.0785828363,0
4164,10,0.5835989213,-0.5031069252,0.6123060279,0.1065563171,0
4165,10,0.6592238118,-0.4958435604,0.6123060279,0.146078433,0
4166,10,-0.7961226605,-0.5067400257,0.6123060279,0.1049611838,0
4167,10,0.9549693534,-0.5067400257,0.6123060279,0.1447800562,0
4168,10,0.1235197223,-0.5031069252,0.6123060279,0.1239462427,0
4169,10,-1.3754013828,-0.5103731262,0.6123060279,0.0952147087,0
4170,10,1.0467168653,-0.5140062267,0.6123060279,0.1150130639,0
4171,10,0.6040560536,-0.5031069252,0.6123060279,0.1349806082,0
4172,10,-1.0629484197,-0.5031069252,0.6123060279,0.0864185028,0
4173,10,-0.4258874619,-0.5031069252,0.6123060279,0.1022498356,0
4174,10,1.2547971605,-0.5031069252,0.6123060279,0.1454249203,0
4175,10,0.2893555517,-0.5067400257,0.6123060279,0.0965238964,0
4176,10,-1.71891683,-0.5103731262,0.6368879402,0.0896658503,0
4177,10,0.8609284462,-0.5140062267,0.6368879402,0.1182433304,0
4178,10,1.0460517905,-0.5140062267,0.6368879402,0.1556917191,0
4179,10,-0.1507251838,-0.5176393272,0.6368879402,0.0998255141,0
4180,10,1.1239930218,-0.5176393272,0.6368879402,0.1464611353,0
4181,10,0.6368287499,-0.5176393272,0.6368879402,0.160679497,0
4182,10,-1.0447617545,-0.5140062267,0.6368879402,0.1253119708,0
4183,10,0.8726821212,-0.5103731262,0.6368879402,0.1893370852,0
4184,10,-0.1084234059,-0.5103731262,0.6368879402,0.1525005877,0
4185,10,-1.5623135799,-0.5140062267,0.6368879402,0.1533616678,0
4186,10,1.1103587464,-0.5140062267,0.6368879402,0.1924962166,0
4187,10,0.6602558423,-0.5212695916,0.6368879402,0.2152718657,0
4188,10,-0.8087019771,-0.5212695916,0.6368879402,0.1737092115,0
4189,10,-0.9551651147,-0.5176393272,0.6368879402,0.1924771896,0
4190,10,1.0617157086,-0.5212695916,0.6368879402,0.2369112998,0
4191,10,0.4688715302,-0.5249026921,0.6123060279,0.2257329345,0
4192,10,-1.2735285164,-0.5212695916,0.6123060279,0.1956999967,0
4193,10,0.7642730616,-0.5140062267,0.6123060279,0.2488777723,0
4194,10,-0.4804130735,-0.5140062267,0.6123060279,0.1945194575,0
4195,10,-0.7087211495,-0.5176393272,0.6368879402,0.1975904809,0
4196,10,0.9954134937,-0.5176393272,0.6368879402,0.22894212,0
4197,10,0.0290659856,-0.5176393272,0.6368879402,0.2048410671,0
4198,10,-1.4566909855,-0.5249026921,0.6368879402,0.1757005606,0
4199,10,1.0985821431,-0.5285357926,0.6123060279,0.1992572898,0
4200,10,0.3868595061,-0.5285357926,0.6123060279,0.1967983738,0
4201,10,-1.5306417162,-0.5285357926,0.6123060279,0.1398809268,0
4202,10,0.7406739641,-0.5321688931,0.6123060279,0.147120594,0
4203,10,0.8990373938,-0.5140062267,0.6123060279,0.1710621876,0
4204,10,-0.4798626573,-0.5176393272,0.6123060279,0.0955320056,0
4205,10,-0.8103876269,-0.5212695916,0.6123060279,0.0856071524,0
4206,10,1.1688519478,-0.5212695916,0.6123060279,0.1139022544,0
4207,10,1.0252277025,-0.5249026921,0.6123060279,0.0543098917,0
4208,10,0.9521255418,-0.5249026921,0.6123060279,0.0757530017,0
4209,10,-0.5860471235,-0.5321688931,0.6123060279,0.0104866996,0
4210,10,-1.3319643713,-0.5321688931,0.6123060279,0.0112850771,0
4211,10,1.3141045135,-0.5358019936,0.6123060279,0.0517131379,0
4212,10,0.6676979347,-0.5358019936,0.6123060279,0.0536109736,0
4213,10,-1.2136592744,-0.5285357926,0.6123060279,0.0084775128,0
4214,10,-0.2208115278,-0.5249026921,0.6368879402,0.0315450534,0
4215,10,1.0029243709,-0.5285357926,0.6368879402,0.082235805,0
4216,10,0.1588135143,-0.5212695916,0.6368879402,0.0391915309,0
4217,10,-1.394746227,-0.5249026921,0.6368879402,0.0356461297,0
4218,10,0.9405438719,-0.5249026921,0.6123060279,0.0693039282,0
4219,10,0.3297423454,-0.5285357926,0.6123060279,0.0725298704,0
4220,10,0.6751285543,-0.5285357926,0.6123060279,0.0595088045,0
4221,10,0.5783126202,-0.5358019936,0.6123060279,0.0734114909,0
4222,10,-1.1040805631,-0.539432258,0.6123060279,0.0276272201,0
4223,10,-0.0935621666,-0.539432258,0.6123060279,0.041657474,0
4224,10,1.028679277,-0.5358019936,0.6123060279,0.0702179812,0
4225,10,-0.382668312,-0.5358019936,0.6123060279,8.3335e-06,0
4226,10,-1.3223894159,-0.5358019936,0.6368879402,-0.0086819266,0
4227,10,1.2656449364,-0.5321688931,0.6368879402,0.0220164159,0
4228,10,0.6634322086,-0.5321688931,0.6368879402,-0.0301386583,0
4229,10,-1.2502848846,-0.5321688931,0.6368879402,-0.0589452192,0
4230,10,1.0282435193,-0.5358019936,0.6368879402,-0.0143013795,0
4231,10,-0.2635031897,-0.5358019936,0.6368879402,-0.0725277979,0
4232,10,-1.058877627,-0.5430653585,0.6368879402,-0.0692456396,0
4233,10,0.3891873025,-0.4958435604,0.6368879402,-0.0764055231,0
4234,10,-1.3227219705,-0.5430653585,0.6368879402,-0.086635349,0
4235,10,1.0522439735,-0.5430653585,0.6368879402,-0.0550607913,0
4236,10,0.8230529267,-0.539432258,0.6368879402,-0.050302959,0
4237,10,-0.8411650642,-0.539432258,0.6123060279,-0.0759937398,0
4238,10,-0.4459432547,-0.5358019936,0.6123060279,-0.0443402633,0
4239,10,1.0874476692,-0.5358019936,0.6123060279,0.0026711412,0
4240,10,0.302886624,-0.5321688931,0.6123060279,-0.0333056816,0
4241,10,-1.5038203786,-0.5358019936,0.6123060279,-0.0219365057,0
4242,10,0.4586544282,-0.5430653585,0.6123060279,0.0254888443,0
4243,10,0.7949743179,-0.5430653585,0.6123060279,0.0602644793,0
4244,10,-0.1223902187,-0.5430653585,0.6123060279,0.0298796499,0
4245,10,-1.5422921881,-0.5430653585,0.6123060279,0.0525340018,0
4246,10,0.6738327884,-0.5430653585,0.6123060279,0.0982887592,0
4247,10,-0.9249086119,-0.5321688931,0.6123060279,0.1000028112,0
4248,10,0.0230572804,-0.5321688931,0.6123060279,0.12879521,0
4249,10,0.6926501446,-0.5321688931,0.6614698526,0.1625081436,0
4250,10,-0.2840061958,-0.539432258,0.6614698526,0.132375422,0
4251,10,-1.1222213717,-0.5430653585,0.6614698526,0.1521151827,0
4252,10,1.0971028994,-0.546698459,0.6614698526,0.1941118904,0
4253,10,0.5347150764,-0.546698459,0.6123060279,0.1819994721,0
4254,10,-0.8865400054,-0.546698459,0.6123060279,0.1716746193,0
4255,10,-0.261530859,-0.546698459,0.6123060279,0.1979405346,0
4256,10,0.9186762807,-0.546698459,0.6123060279,0.2363433005,0
4257,10,0.21518204,-0.546698459,0.6123060279,0.2045578241,0
4258,10,-1.4573560776,-0.539432258,0.6123060279,0.2153718656,0
4259,10,0.7398597952,-0.539432258,0.6123060279,0.2514869585,0
4260,10,0.9766190658,-0.5358019936,0.6123060279,0.2830955702,0
4261,10,-1.660700488,-0.539432258,0.6123060279,0.2516129043,0
4262,10,1.0147468651,-0.539432258,0.6123060279,0.2888155635,0
4263,10,0.8339809773,-0.539432258,0.6123060279,0.324072279,0
4264,10,-0.3846520982,-0.5321688931,0.6123060279,0.2770539556,0
4265,10,-1.2569128253,-0.5503315595,0.6123060279,0.2895966437,0
4266,10,1.100302194,-0.5503315595,0.6123060279,0.328967949,0
4267,10,0.4902460172,-0.5503315595,0.6123060279,0.3383273975,0
4268,10,-1.0663885214,-0.546698459,0.6123060279,0.3029096011,0
4269,10,-0.1644970633,-0.546698459,0.6123060279,0.3242857923,0
4270,10,0.7881932239,-0.539432258,0.6123060279,0.36486088,0
4271,10,-0.0070239491,-0.539432258,0.6123060279,0.3222119569,0
4272,10,-1.2840437548,-0.5430653585,0.6123060279,0.3140468853,0
4273,10,0.9716653193,-0.5430653585,0.6123060279,0.3353782118,0
4274,10,0.3708515605,-0.5503315595,0.6123060279,0.3373473987,0
4275,10,0.8528327345,-0.5503315595,0.6123060279,0.2925778294,0
4276,10,0.5420539485,-0.55396466,0.6123060279,0.3076182442,0
4277,10,-1.1184831336,-0.5575949244,0.5754331594,0.2398788639,0
4278,10,0.1882624359,-0.5575949244,0.5754331594,0.2388415679,0
4279,10,1.1000499141,-0.55396466,0.5754331594,0.2659820767,0
4280,10,0.0060402498,-0.55396466,0.5754331594,0.1958081046,0
4281,10,-1.7699695902,-0.546698459,0.6123060279,0.1824681202,0
4282,10,1.0674950795,-0.5430653585,0.6123060279,0.2049707966,0
4283,10,1.0415567128,-0.546698459,0.6123060279,0.2291232008,0
4284,10,-0.2590654586,-0.5503315595,0.6123060279,0.1534791811,0
4285,10,-1.9878836397,-0.546698459,0.6123060279,0.1454768121,0
4286,10,0.7804644678,-0.55396466,0.6123060279,0.1758524523,0
4287,10,1.2196163759,-0.5575949244,0.6123060279,0.2156372706,0
4288,10,0.2017934911,-0.5503315595,0.6123060279,0.1521768043,0
4289,10,0.5898599064,-0.5575949244,0.6123060279,0.1921237846,0
4290,10,1.0119833111,-0.5612280249,0.6123060279,0.2338994115,0
4291,10,0.0742803945,-0.55396466,0.6123060279,0.1816762293,0
4292,10,-1.4429191233,-0.55396466,0.6123060279,0.1861535213,0
4293,10,0.8269287688,-0.546698459,0.6123060279,0.2133875436,0
4294,10,0.6306021658,-0.546698459,0.6123060279,0.2421080505,0
4295,10,-0.5304092065,-0.546698459,0.6123060279,0.1951178352,0
4296,10,-1.3707916465,-0.5503315595,0.6123060279,0.206296741,0
4297,10,1.1433722671,-0.5503315595,0.6123060279,0.2470404772,0
4298,10,0.7291381507,-0.5575949244,0.6123060279,0.2538217666,0
4299,10,-0.6680149251,-0.5575949244,0.6123060279,0.2095086292,0
4300,10,-1.3985876681,-0.5575949244,0.6123060279,0.2250729353,0
4301,10,1.2738438511,-0.5612280249,0.6123060279,0.2717593672,0
4302,10,0.9182978695,-0.5612280249,0.6123060279,0.2660420766,0
4303,10,-1.7527346808,-0.5612280249,0.6123060279,0.2439345349,0
4304,10,1.1064141022,-0.55396466,0.6123060279,0.2927252887,0
4305,10,0.878954579,-0.5503315595,0.6123060279,0.2892842116,0
4306,10,-0.4728563054,-0.55396466,0.6123060279,0.2475156118,0
4307,10,-1.2903391409,-0.55396466,0.6123060279,0.269555586,0
4308,10,1.1855823147,-0.5503315595,0.6123060279,0.3164090448,0
4309,10,0.743437501,-0.5503315595,0.6368879402,0.2853988107,0
4310,10,-0.9828055232,-0.5612280249,0.6368879402,0.2615810007,0
4311,10,0.1896614049,-0.5612280249,0.6368879402,0.276709956,0
4312,10,0.9115552702,-0.5612280249,0.6368879402,0.3069695963,0
4313,10,-0.4537702944,-0.5612280249,0.6368879402,0.2620680272,0
4314,10,-1.3832562874,-0.5648611254,0.6368879402,0.2595966787,0
4315,10,1.1937124102,-0.55396466,0.6368879402,0.2903074536,0
4316,10,0.5331555579,-0.5503315595,0.6368879402,0.2662685628,0
4317,10,-0.1625591336,-0.5503315595,0.6123060279,0.2350464372,0
4318,10,1.2128049745,-0.55396466,0.6123060279,0.2616550547,0
4319,10,0.2358046412,-0.55396466,0.6123060279,0.1792162321,0
4320,10,-1.6236505929,-0.55396466,0.6123060279,0.1660719232,0
4321,10,1.324126665,-0.5612280249,0.5754331594,0.2161075404,0
4322,10,0.4642617939,-0.5648611254,0.5754331594,0.1398530349,0
4323,10,-1.3558501497,-0.55396466,0.5754331594,0.1380924964,0
4324,10,-0.0209530928,-0.5612280249,0.6123060279,0.1735513739,0
4325,10,1.1709848108,-0.5648611254,0.6123060279,0.2002994507,0
4326,10,0.3426009467,-0.5575949244,0.6123060279,0.1282984538,0
4327,10,-1.5947766671,-0.5575949244,0.6123060279,0.1246492689,0
4328,10,0.962331171,-0.55396466,0.6123060279,0.1603886866,0
4329,10,-1.9349568669,-0.55396466,0.6123060279,0.1213357593,0
4330,10,1.1585431155,-0.55396466,0.6123060279,0.1654919239,0
4331,10,0.8449090451,-0.5612280249,0.6123060279,0.138148172,0
4332,10,-0.7172640744,-0.5648611254,0.6123060279,0.0874655286,0
4333,10,-1.0811580303,-0.5612280249,0.6123060279,0.1045871302,0
4334,10,1.2933492277,-0.5648611254,0.6123060279,0.1423905455,0
4335,10,0.5961438197,-0.5575949244,0.6123060279,0.0702174406,0
4336,10,-1.4467605644,-0.55396466,0.6123060279,0.0439509848,0
4337,10,0.2774069261,-0.55396466,0.6123060279,0.0678455515,0
4338,10,0.9742683239,-0.55396466,0.6123060279,0.0819601296,0
4339,10,-0.1061848801,-0.55396466,0.6123060279,0.0133126423,0
4340,10,-1.1926517259,-0.5575949244,0.6123060279,0.0133388044,0
4341,10,1.1417324738,-0.5648611254,0.6123060279,0.0449720647,0
4342,10,0.3762066464,-0.5648611254,0.6123060279,-0.0015040972,0
4343,10,0.9117502208,-0.5648611254,0.6368879402,0.0129937237,0
4344,10,1.3183014376,-0.5648611254,0.6368879402,0.0104975104,0
4345,10,-0.3324887012,-0.5612280249,0.6368879402,-0.0483547451,0
4346,10,-1.8571990961,-0.5612280249,0.6368879402,-0.0339359511,0
4347,10,1.1055999506,-0.5612280249,0.6123060279,0.0177542587,0
4348,10,0.8940566254,-0.5575949244,0.6123060279,-0.0237770441,0
4349,10,-0.56521158,-0.5612280249,0.6123060279,-0.0601456502,0
4350,10,-1.6063354087,-0.5612280249,0.6123060279,-0.0358824354,0
4351,10,1.4129500904,-0.5612280249,0.6123060279,0.0132090748,0
4352,10,0.9707938212,-0.5648611254,0.6123060279,0.006441299,0
4353,10,-0.5096965263,-0.5612280249,0.6123060279,-0.0388802697,0
4354,10,-1.3098559902,-0.5684942259,0.6123060279,-0.0141900283,0
4355,10,1.1834609072,-0.5612280249,0.6368879402,0.0401212596,0
4356,10,0.5422488991,-0.5648611254,0.6368879402,0.0229250635,0
4357,10,-0.6902707317,-0.5575949244,0.6368879402,0.0480666557,0
4358,10,1.1774636747,-0.5575949244,0.6368879402,0.0982195701,0
4359,10,0.3839239469,-0.5575949244,0.5754331594,0.0417250415,0
4360,10,-1.560352722,-0.5575949244,0.5754331594,0.0406319617,0
4361,10,-0.0588400679,-0.5575949244,0.5754331594,0.0716217633,0
4362,10,1.1247269159,-0.5612280249,0.5754331594,0.1034784828,0
4363,10,0.0897723248,-0.5684942259,0.6368879402,0.0102915647,0
4364,10,-1.2097146302,-0.5684942259,0.6368879402,-0.0194878599,0
4365,10,1.1702509167,-0.5648611254,0.6368879402,-0.0075132793,0
4366,10,0.1855562112,-0.5648611254,0.6368879402,-0.0242716381,0
4367,10,-1.7208457466,-0.5648611254,0.6368879402,-0.0542477112,0
4368,10,0.7997863666,-0.5721273264,0.6368879402,-0.1003639816,0
4369,10,0.4835836926,-0.5684942259,0.6368879402,-0.2401762506,0
4370,10,-1.5049900132,-0.5575949244,0.6368879402,-0.3321301972,0
4371,10,1.0960937972,-0.5575949244,0.6123060279,-0.2868710068,0
4372,10,-0.3422356445,-0.5575949244,0.6123060279,-0.424036499,0
4373,10,1.6053664503,-0.5612280249,0.6123060279,-0.4943922778,0
