ID,empatica_bvp,empatica_eda,empatica_temp,samsung_bvp,time,CL
7.0,19.135,,,,1649753425.4683332,1
7.0,27.09166666666667,0.143475,30.89,,1649753425.5616667,1
7.0,15.353333333333332,,,,1649753425.655,1
7.0,2.28,,,,1649753425.7483332,1
7.0,-13.658333333333331,0.155004,30.89,,1649753425.8416667,1
7.0,-22.423333333333332,,,,1649753425.935,1
7.0,-26.735,0.155004,30.89,,1649753426.0283334,1
7.0,-42.595,,,,1649753426.1216667,1
7.0,-30.044999999999998,,,,1649753426.215,1
7.0,-9.763333333333334,0.152442,30.91,,1649753426.3083334,1
7.0,14.323333333333332,,,,1649753426.4016666,1
7.0,29.34,,,,1649753426.495,1
7.0,102.44333333333334,0.151161,30.91,,1649753426.5883334,1
7.0,143.18333333333334,,,,1649753426.6816666,1
7.0,59.06333333333333,0.148599,30.91,,1649753426.775,1
7.0,-63.11333333333334,,,,1649753426.8683333,1
7.0,-141.90833333333333,,,,1649753426.9616666,1
7.0,-123.86166666666668,0.147318,30.91,,1649753427.055,1
7.0,-123.53666666666668,,,,1649753427.1483333,1
7.0,-74.16166666666666,,,,1649753427.2416666,1
7.0,22.076666666666668,0.148599,30.87,,1649753427.335,1
7.0,44.791666666666664,,,,1649753427.4283333,1
7.0,60.303333333333335,0.14988,30.87,,1649753427.5216668,1
7.0,69.54666666666667,,,,1649753427.615,1
7.0,54.025000000000006,,,,1649753427.7083333,1
7.0,34.405,0.148599,30.87,,1649753427.8016667,1
7.0,19.188333333333336,,,,1649753427.895,1
7.0,-0.6549999999999999,,,,1649753427.9883332,1
7.0,-21.893333333333334,0.147318,30.87,,1649753428.0816667,1
7.0,-44.50833333333333,,,,1649753428.175,1
7.0,-67.95666666666666,0.14988,30.89,,1649753428.2683334,1
7.0,-39.465,,,,1649753428.3616667,1
7.0,76.42,,,,1649753428.455,1
7.0,112.2,0.14988,30.89,,1649753428.5483334,1
7.0,156.25333333333333,,,,1649753428.6416667,1
7.0,193.95333333333335,,,,1649753428.735,1
7.0,150.05333333333334,0.152442,30.89,,1649753428.8283334,1
7.0,60.74000000000001,,,,1649753428.9216666,1
7.0,-65.52333333333333,0.151161,30.89,,1649753429.015,1
7.0,-167.97333333333333,,,,1649753429.1083333,1
7.0,-189.67833333333337,,,,1649753429.2016666,1
7.0,-145.49333333333334,0.147318,30.87,,1649753429.295,1
7.0,-61.82,,,,1649753429.3883333,1
7.0,37.085,,,,1649753429.4816666,1
7.0,76.25,0.147318,30.87,,1649753429.575,1
7.0,60.129999999999995,,,,1649753429.6683333,1
7.0,-18.133333333333333,0.14988,30.87,,1649753429.7616668,1
7.0,-59.23333333333333,,,,1649753429.855,1
7.0,-78.86666666666666,,,,1649753429.9483333,1
7.0,-79.03999999999999,0.151161,30.87,,1649753430.0416667,1
7.0,-61.43833333333334,,,,1649753430.135,1
7.0,-49.52833333333333,,,,1649753430.2283332,1
7.0,-9.836666666666666,0.152442,30.87,,1649753430.3216667,1
7.0,57.339999999999996,,,,1649753430.415,1
7.0,62.915,0.148599,30.87,,1649753430.5083334,1
7.0,62.598333333333336,,,,1649753430.6016667,1
7.0,69.56333333333335,,,,1649753430.695,1
7.0,68.53,0.14988,30.87,,1649753430.7883334,1
7.0,59.896666666666654,,,,1649753430.8816667,1
7.0,8.733333333333334,,,,1649753430.975,1
7.0,-44.32333333333333,0.151161,30.87,,1649753431.0683334,1
7.0,-95.83999999999999,,,,1649753431.1616666,1
7.0,-131.69333333333333,0.14988,30.87,,1649753431.255,1
7.0,-28.001666666666665,,,,1649753431.3483334,1
7.0,41.87833333333334,,,,1649753431.4416666,1
7.0,43.175000000000004,0.151161,30.87,,1649753431.535,1
7.0,40.86666666666667,,,,1649753431.6283333,1
7.0,14.983333333333333,,,,1649753431.7216666,1
7.0,-22.925,0.147318,30.87,,1649753431.815,1
7.0,-51.01,,,,1649753431.9083333,1
7.0,-78.41666666666667,0.147318,30.87,,1649753432.0016668,1
7.0,-66.195,,,,1649753432.095,1
7.0,-49.89166666666667,,,,1649753432.1883333,1
7.0,52.096666666666664,0.14988,30.87,,1649753432.2816668,1
7.0,86.54,,,,1649753432.375,1
7.0,86.01333333333334,,,,1649753432.4683332,1
7.0,81.36833333333333,0.152442,30.87,,1649753432.5616667,1
7.0,67.35166666666667,,,,1649753432.655,1
7.0,39.781666666666666,,,,1649753432.7483332,1
7.0,26.486666666666665,0.151161,30.87,,1649753432.8416667,1
7.0,29.76,,,,1649753432.935,1
7.0,3.7050000000000005,0.147318,30.87,,1649753433.0283334,1
7.0,-95.635,,,,1649753433.1216667,1
7.0,-116.20166666666667,,,,1649753433.215,1
7.0,-20.29666666666667,0.148599,30.87,,1649753433.3083334,1
7.0,26.61,,,,1649753433.4016666,1
7.0,33.27166666666667,,,,1649753433.495,1
7.0,43.10999999999999,0.147318,30.87,,1649753433.5883334,1
7.0,38.02333333333333,,,,1649753433.6816666,1
7.0,15.801666666666668,0.148599,30.87,,1649753433.775,1
7.0,-1.64,,,,1649753433.8683333,1
7.0,-13.613333333333332,,,,1649753433.9616666,1
7.0,-30.208333333333332,0.151161,30.87,,1649753434.055,1
7.0,-47.636666666666656,,,,1649753434.1483333,1
7.0,-55.92333333333334,,,,1649753434.2416666,1
7.0,17.406666666666666,0.148599,30.89,,1649753434.335,1
7.0,33.55333333333334,,,,1649753434.4283333,1
7.0,23.965,0.147318,30.89,,1649753434.5216668,1
7.0,30.379999999999995,,,,1649753434.615,1
7.0,25.215,,,,1649753434.7083333,1
7.0,7.953333333333334,0.148599,30.89,,1649753434.8016667,1
7.0,-8.471666666666666,,,,1649753434.895,1
7.0,-21.115,,,,1649753434.9883332,1
7.0,-33.693333333333335,0.14988,30.89,,1649753435.0816667,1
7.0,-51.805,,,,1649753435.175,1
7.0,-27.088333333333335,0.14988,30.87,,1649753435.2683334,1
7.0,34.376666666666665,,,,1649753435.3616667,1
7.0,33.64333333333334,,,,1649753435.455,1
7.0,31.39833333333333,0.148599,30.87,,1649753435.5483334,1
7.0,27.963333333333335,,,,1649753435.6416667,1
7.0,16.05333333333333,,,,1649753435.735,1
7.0,1.735,0.147318,30.87,,1649753435.8283334,1
7.0,-5.328,,,,1649753435.9216666,1
7.0,-14.116666666666667,0.147318,30.87,,1649753436.015,1
7.0,-24.89,,,,1649753436.1083333,1
7.0,-35.04333333333333,,,,1649753436.2016666,1
7.0,-51.43166666666667,0.151161,30.87,,1649753436.295,1
7.0,-10.569999999999999,,,,1649753436.3883333,1
7.0,30.44666666666667,,,,1649753436.4816666,1
7.0,24.983333333333334,0.151161,30.87,,1649753436.575,1
7.0,26.55666666666667,,,,1649753436.6683333,1
7.0,26.686666666666667,0.14988,30.87,,1649753436.7616668,1
7.0,15.973333333333331,,,,1649753436.855,1
7.0,4.864999999999999,,,,1649753436.9483333,1
7.0,-4.633333333333334,0.148599,30.87,,1649753437.0416667,1
7.0,-14.883333333333335,,,,1649753437.135,1
7.0,-27.526666666666667,,,,1649753437.2283332,1
7.0,-45.82166666666666,0.147318,30.87,,1649753437.3216667,1
7.0,-20.459999999999997,,,,1649753437.415,1
7.0,19.383333333333333,0.14988,30.87,,1649753437.5083334,1
7.0,18.511666666666667,,,,1649753437.6016667,1
7.0,17.625,,,,1649753437.695,1
7.0,17.698333333333334,0.14988,30.87,,1649753437.7883334,1
7.0,6.755,,,,1649753437.8816667,1
7.0,-1.0683333333333331,,,,1649753437.975,1
7.0,-5.548333333333333,0.14988,30.87,,1649753438.0683334,1
7.0,-15.868333333333332,,,,1649753438.1616666,1
7.0,-28.73,0.147318,30.87,,1649753438.255,1
7.0,-43.55166666666667,,,,1649753438.3483334,1
7.0,-21.24,,,,1649753438.4416666,1
7.0,27.501666666666665,0.147318,30.87,,1649753438.535,1
7.0,25.955,,,,1649753438.6283333,1
7.0,24.171666666666667,,,,1649753438.7216666,1
7.0,26.291666666666668,0.151161,30.87,,1649753438.815,1
7.0,15.138333333333334,,,,1649753438.9083333,1
7.0,-0.26999999999999985,0.152442,30.87,,1649753439.0016668,1
7.0,-5.341666666666666,,,,1649753439.095,1
7.0,-9.270000000000001,,,,1649753439.1883333,1
7.0,-17.101666666666667,0.14988,30.89,,1649753439.2816668,1
7.0,-26.76,,,,1649753439.375,1
7.0,-38.41833333333333,,,,1649753439.4683332,1
7.0,-20.675,0.148599,30.89,,1649753439.5616667,1
7.0,26.058333333333337,,,,1649753439.655,1
7.0,19.363333333333333,,,,1649753439.7483332,1
7.0,17.97666666666667,0.147318,30.89,,1649753439.8416667,1
7.0,19.511666666666667,,,,1649753439.935,1
7.0,12.286666666666667,0.152442,30.89,,1649753440.0283334,1
7.0,-0.6849999999999999,,,,1649753440.1216667,1
7.0,-11.631666666666666,,,,1649753440.215,1
7.0,-22.72666666666667,0.152442,30.87,,1649753440.3083334,1
7.0,-32.87166666666667,,,,1649753440.4016666,1
7.0,-42.165,,,,1649753440.495,1
7.0,8.03,0.151161,30.87,,1649753440.5883334,1
7.0,23.94666666666667,,,,1649753440.6816666,1
7.0,15.964999999999998,0.148599,30.87,,1649753440.775,1
7.0,15.901666666666669,,,,1649753440.8683333,1
7.0,12.826666666666668,,,,1649753440.9616666,1
7.0,2.558333333333333,0.148599,30.87,,1649753441.055,1
7.0,-5.993333333333333,,,,1649753441.1483333,1
7.0,-17.716666666666665,,,,1649753441.2416666,1
7.0,-24.915000000000003,0.14988,30.87,,1649753441.335,1
7.0,-35.12500000000001,,,,1649753441.4283333,1
7.0,-38.321666666666665,0.151161,30.87,,1649753441.5216668,1
7.0,17.445,,,,1649753441.615,1
7.0,62.63333333333333,,,,1649753441.7083333,1
7.0,17.358333333333338,0.151161,30.87,,1649753441.8016667,1
7.0,17.483333333333334,,,,1649753441.895,1
7.0,17.8,,,,1649753441.9883332,1
7.0,8.4,0.148599,30.87,,1649753442.0816667,1
7.0,-1.9866666666666666,,,,1649753442.175,1
7.0,-9.563333333333333,0.148599,30.87,,1649753442.2683334,1
7.0,-18.506666666666664,,,,1649753442.3616667,1
7.0,-30.146666666666665,,,,1649753442.455,1
7.0,-46.718333333333334,0.152442,30.87,,1649753442.5483334,1
7.0,-28.896666666666672,,,,1649753442.6416667,1
7.0,25.916666666666668,,,,1649753442.735,1
7.0,22.481666666666666,0.152442,30.87,,1649753442.8283334,1
7.0,19.137999999999998,,,,1649753442.9216666,1
7.0,27.3,0.151161,30.87,,1649753443.015,1
7.0,34.029999999999994,,,,1649753443.1083333,1
7.0,43.906666666666666,,,,1649753443.2016666,1
7.0,38.098333333333336,0.148599,30.85,,1649753443.295,1
7.0,-19.116666666666667,,,,1649753443.3883333,1
7.0,-61.758333333333326,,,,1649753443.4816666,1
7.0,-74.97333333333334,0.147318,30.85,,1649753443.575,1
7.0,-46.37833333333333,,,,1649753443.6683333,1
7.0,18.849999999999998,0.151161,30.85,,1649753443.7616668,1
7.0,25.14333333333333,,,,1649753443.855,1
7.0,25.258333333333336,,,,1649753443.9483333,1
7.0,27.25833333333333,0.14988,30.85,,1649753444.0416667,1
7.0,16.603333333333335,,,,1649753444.135,1
7.0,1.3516666666666666,,,,1649753444.2283332,1
7.0,-0.9400000000000001,0.151161,30.87,,1649753444.3216667,1
7.0,-2.891666666666667,,,,1649753444.415,1
7.0,-15.230000000000002,0.148599,30.87,,1649753444.5083334,1
7.0,-34.09666666666667,,,,1649753444.6016667,1
7.0,-57.07666666666666,,,,1649753444.695,1
7.0,-4.076666666666665,0.14988,30.87,,1649753444.7883334,1
7.0,36.843333333333334,,,,1649753444.8816667,1
7.0,31.673333333333332,,,,1649753444.975,1
7.0,34.29666666666666,0.14988,30.87,,1649753445.0683334,1
7.0,42.32,,,,1649753445.1616666,1
7.0,41.71,0.152442,30.87,,1649753445.255,1
7.0,26.141666666666666,,,,1649753445.3483334,1
7.0,-5.746666666666667,,,,1649753445.4416666,1
7.0,-34.483333333333334,0.151161,30.87,,1649753445.535,1
7.0,-42.585,,,,1649753445.6283333,1
7.0,-43.48499999999999,,,,1649753445.7216666,1
7.0,-54.004999999999995,0.14988,30.87,,1649753445.815,1
7.0,-26.386666666666667,,,,1649753445.9083333,1
7.0,30.395,0.151161,30.87,,1649753446.0016668,1
7.0,24.62666666666667,,,,1649753446.095,1
7.0,25.44666666666667,,,,1649753446.1883333,1
7.0,29.961666666666662,0.153723,30.85,,1649753446.2816668,1
7.0,20.0,,,,1649753446.375,1
7.0,7.626666666666668,,,,1649753446.4683332,1
7.0,-2.658333333333333,0.153723,30.85,,1649753446.5616667,1
7.0,-11.918333333333331,,,,1649753446.655,1
7.0,-26.37,,,,1649753446.7483332,1
7.0,-43.748333333333335,0.153723,30.85,,1649753446.8416667,1
7.0,-61.18666666666667,,,,1649753446.935,1
7.0,-7.641666666666666,0.151161,30.85,,1649753447.0283334,1
7.0,37.501666666666665,,,,1649753447.1216667,1
7.0,31.639999999999997,,,,1649753447.215,1
7.0,31.82166666666667,0.151161,30.85,,1649753447.3083334,1
7.0,33.31666666666666,,,,1649753447.4016666,1
7.0,20.64,,,,1649753447.495,1
7.0,8.969999999999999,0.152442,30.85,,1649753447.5883334,1
7.0,-0.27666666666666667,,,,1649753447.6816666,1
7.0,-9.341666666666667,0.153723,30.85,,1649753447.775,1
7.0,-20.99,,,,1649753447.8683333,1
7.0,-37.18333333333334,,,,1649753447.9616666,1
7.0,-58.75666666666667,0.153723,30.85,,1649753448.055,1
7.0,-21.023333333333337,,,,1649753448.1483333,1
7.0,34.53166666666667,,,,1649753448.2416666,1
7.0,28.425,0.14988,30.83,,1649753448.335,1
7.0,29.08666666666667,,,,1649753448.4283333,1
7.0,32.61000000000001,0.14988,30.83,,1649753448.5216668,1
7.0,20.048333333333332,,,,1649753448.615,1
7.0,5.63,,,,1649753448.7083333,1
7.0,-6.669999999999999,0.152442,30.83,,1649753448.8016667,1
7.0,-17.948333333333334,,,,1649753448.895,1
7.0,-33.855000000000004,,,,1649753448.9883332,1
7.0,-54.163333333333334,0.152442,30.83,,1649753449.0816667,1
7.0,-55.321666666666665,,,,1649753449.175,1
7.0,24.491666666666664,0.151161,30.83,,1649753449.2683334,1
7.0,37.095,,,,1649753449.3616667,1
7.0,33.96666666666667,,,,1649753449.455,1
7.0,39.27333333333333,0.14988,30.83,,1649753449.5483334,1
7.0,31.31833333333333,,,,1649753449.6416667,1
7.0,14.705,,,,1649753449.735,1
7.0,4.916666666666667,0.14988,30.83,,1649753449.8283334,1
7.0,-2.37,,,,1649753449.9216666,1
7.0,-16.641666666666666,0.166533,30.83,,1649753450.015,1
7.0,-32.013333333333335,,,,1649753450.1083333,1
7.0,-47.81166666666666,,,,1649753450.2016666,1
7.0,-71.74833333333333,0.152442,30.83,,1649753450.295,1
7.0,-10.604999999999999,,,,1649753450.3883333,1
7.0,38.949999999999996,,,,1649753450.4816666,1
7.0,33.365,0.151161,30.83,,1649753450.575,1
7.0,37.62833333333334,,,,1649753450.6683333,1
7.0,37.85,0.152442,30.83,,1649753450.7616668,1
7.0,23.03333333333333,,,,1649753450.855,1
7.0,10.424999999999999,,,,1649753450.9483333,1
7.0,4.348333333333333,0.151161,30.83,,1649753451.0416667,1
7.0,-2.0533333333333332,,,,1649753451.135,1
7.0,-12.441666666666668,,,,1649753451.2283332,1
7.0,-17.871666666666666,0.153723,30.83,,1649753451.3216667,1
7.0,-30.80333333333333,,,,1649753451.415,1
7.0,-0.6716666666666651,0.153723,30.83,,1649753451.5083334,1
7.0,5.946666666666666,,,,1649753451.6016667,1
7.0,-5.276666666666666,,,,1649753451.695,1
7.0,6.69,0.151161,30.83,,1649753451.7883334,1
7.0,19.53833333333333,,,,1649753451.8816667,1
7.0,14.323333333333332,,,,1649753451.975,1
7.0,4.773333333333333,0.151161,30.83,,1649753452.0683334,1
7.0,-4.626666666666666,,,,1649753452.1616666,1
7.0,-19.96,0.152442,30.83,,1649753452.255,1
7.0,-41.44166666666667,,,,1649753452.3483334,1
7.0,-64.265,,,,1649753452.4416666,1
7.0,-59.40166666666667,0.152442,30.83,,1649753452.535,1
7.0,29.21166666666667,,,,1649753452.6283333,1
7.0,39.026666666666664,,,,1649753452.7216666,1
7.0,37.81166666666667,0.153723,30.83,,1649753452.815,1
7.0,44.21,,,,1649753452.9083333,1
7.0,36.60166666666667,0.151161,30.83,,1649753453.0016668,1
7.0,16.031666666666666,,,,1649753453.095,1
7.0,2.4533333333333327,,,,1649753453.1883333,1
7.0,-9.055,0.152442,30.83,,1649753453.2816668,1
7.0,-21.119999999999997,,,,1649753453.375,1
7.0,-35.63333333333333,,,,1649753453.4683332,1
7.0,-52.31,0.155004,30.83,,1649753453.5616667,1
7.0,-76.78,,,,1649753453.655,1
7.0,-8.49,,,,1649753453.7483332,1
7.0,50.791666666666664,0.153723,30.83,,1649753453.8416667,1
7.0,42.14333333333334,,,,1649753453.935,1
7.0,45.01666666666667,0.151161,30.83,,1649753454.0283334,1
7.0,43.87833333333333,,,,1649753454.1216667,1
7.0,24.098333333333333,,,,1649753454.215,1
7.0,9.791666666666666,0.151161,30.81,,1649753454.3083334,1
7.0,-1.8699999999999999,,,,1649753454.4016666,1
7.0,-14.590000000000002,,,,1649753454.495,1
7.0,-34.255,0.14988,30.81,,1649753454.5883334,1
7.0,-52.11000000000001,,,,1649753454.6816666,1
7.0,-75.78333333333335,0.152442,30.81,,1649753454.775,1
7.0,4.506666666666667,,,,1649753454.8683333,1
7.0,44.004999999999995,,,,1649753454.9616666,1
7.0,33.10333333333333,0.152442,30.81,,1649753455.055,1
7.0,38.748333333333335,,,,1649753455.1483333,1
7.0,39.531666666666666,,,,1649753455.2416666,1
7.0,21.075,0.151161,30.83,,1649753455.335,1
7.0,10.37,,,,1649753455.4283333,1
7.0,5.251666666666667,0.14988,30.83,,1649753455.5216668,1
7.0,6.621666666666666,,,,1649753455.615,1
7.0,1.8216666666666672,,,,1649753455.7083333,1
7.0,-57.94499999999999,0.151161,30.83,,1649753455.8016667,1
7.0,-108.23,,,,1649753455.895,1
7.0,-20.753333333333334,,,,1649753455.9883332,1
7.0,8.336666666666668,0.151161,30.83,,1649753456.0816667,1
7.0,19.065,,,,1649753456.175,1
7.0,34.23,0.152442,30.83,,1649753456.2683334,1
7.0,32.928333333333335,,,,1649753456.3616667,1
7.0,17.041666666666668,,,,1649753456.455,1
7.0,2.785,0.153723,30.83,,1649753456.5483334,1
7.0,-9.868333333333334,,,,1649753456.6416667,1
7.0,-22.43166666666667,,,,1649753456.735,1
7.0,-42.81999999999999,0.152442,30.83,,1649753456.8283334,1
7.0,-66.58,,,,1649753456.9216666,1
7.0,-69.20166666666667,0.14988,30.83,,1649753457.015,1
7.0,28.544999999999998,,,,1649753457.1083333,1
7.0,45.056666666666665,,,,1649753457.2016666,1
7.0,41.93,0.152442,30.83,,1649753457.295,1
7.0,50.02333333333333,,,,1649753457.3883333,1
7.0,41.755,,,,1649753457.4816666,1
7.0,18.173333333333332,0.153723,30.83,,1649753457.575,1
7.0,0.33000000000000024,,,,1649753457.6683333,1
7.0,-13.801666666666668,0.153723,30.83,,1649753457.7616668,1
7.0,-38.415,,,,1649753457.855,1
7.0,-65.37,,,,1649753457.9483333,1
7.0,-66.90666666666667,0.151161,30.83,,1649753458.0416667,1
7.0,27.92833333333333,,,,1649753458.135,1
7.0,42.065,,,,1649753458.2283332,1
7.0,37.87166666666667,0.14988,30.83,,1649753458.3216667,1
7.0,41.92333333333333,,,,1649753458.415,1
7.0,33.33166666666667,0.153723,30.83,,1649753458.5083334,1
7.0,16.76833333333333,,,,1649753458.6016667,1
7.0,3.7100000000000004,,,,1649753458.695,1
7.0,-11.278333333333334,0.152442,30.83,,1649753458.7883334,1
7.0,-27.261666666666667,,,,1649753458.8816667,1
7.0,-50.65,,,,1649753458.975,1
7.0,-78.97000000000001,0.14988,30.83,,1649753459.0683334,1
7.0,-53.596666666666664,,,,1649753459.1616666,1
7.0,42.14833333333333,0.151161,30.83,,1649753459.255,1
7.0,45.415,,,,1649753459.3483334,1
7.0,46.13333333333333,,,,1649753459.4416666,1
7.0,49.82166666666666,0.14988,30.83,,1649753459.535,1
7.0,42.303333333333335,,,,1649753459.6283333,1
7.0,35.160000000000004,,,,1649753459.7216666,1
7.0,28.23,0.153723,30.83,,1649753459.815,1
7.0,6.889999999999998,,,,1649753459.9083333,1
7.0,-29.768333333333334,0.153723,30.83,,1649753460.0016668,1
7.0,-51.281666666666666,,,,1649753460.095,1
7.0,-61.39833333333334,,,,1649753460.1883333,1
7.0,-76.75666666666667,0.151161,30.83,,1649753460.2816668,1
7.0,-4.996000000000002,,,,1649753460.375,1
7.0,46.55666666666667,,,,1649753460.4683332,1
7.0,27.988333333333333,0.14988,30.83,,1649753460.5616667,1
7.0,30.816666666666663,,,,1649753460.655,1
7.0,31.36,,,,1649753460.7483332,1
7.0,15.058333333333332,0.153723,30.83,,1649753460.8416667,1
7.0,-1.1416666666666668,,,,1649753460.935,1
7.0,-16.3,0.155004,30.83,,1649753461.0283334,1
7.0,-27.48166666666667,,,,1649753461.1216667,1
7.0,-47.30666666666667,,,,1649753461.215,1
7.0,-73.85666666666667,0.153723,30.81,,1649753461.3083334,1
7.0,-51.97166666666666,,,,1649753461.4016666,1
7.0,39.24333333333333,,,,1649753461.495,1
7.0,44.669999999999995,0.14988,30.81,,1649753461.5883334,1
7.0,44.321666666666665,,,,1649753461.6816666,1
7.0,45.403333333333336,0.151161,30.81,,1649753461.775,1
7.0,33.82,,,,1649753461.8683333,1
7.0,19.911666666666665,,,,1649753461.9616666,1
7.0,8.528333333333334,0.155004,30.81,,1649753462.055,1
7.0,-4.038333333333333,,,,1649753462.1483333,1
7.0,-21.161666666666665,,,,1649753462.2416666,1
7.0,-38.73166666666667,0.153723,30.81,,1649753462.335,1
7.0,-58.46666666666667,,,,1649753462.4283333,1
7.0,-80.28333333333333,0.152442,30.81,,1649753462.5216668,1
7.0,2.9183333333333312,,,,1649753462.615,1
7.0,44.498333333333335,,,,1649753462.7083333,1
7.0,34.608333333333334,0.151161,30.81,,1649753462.8016667,1
7.0,40.98,,,,1649753462.895,1
7.0,41.19333333333333,,,,1649753462.9883332,1
7.0,19.08,0.152442,30.81,,1649753463.0816667,1
7.0,0.8133333333333334,,,,1649753463.175,1
7.0,-15.935000000000002,0.153723,30.81,,1649753463.2683334,1
7.0,-39.55166666666667,,,,1649753463.3616667,1
7.0,-64.895,,,,1649753463.455,1
7.0,-67.25166666666667,0.155004,30.81,,1649753463.5483334,1
7.0,27.36,,,,1649753463.6416667,1
7.0,40.038333333333334,,,,1649753463.735,1
7.0,35.835,0.155004,30.81,,1649753463.8283334,1
7.0,43.638,,,,1649753463.9216666,1
7.0,38.62833333333333,0.14988,30.81,,1649753464.015,1
7.0,18.941666666666666,,,,1649753464.1083333,1
7.0,4.473333333333334,,,,1649753464.2016666,1
7.0,-9.068333333333333,0.152442,30.85,,1649753464.295,1
7.0,-26.026666666666667,,,,1649753464.3883333,1
7.0,-49.385,,,,1649753464.4816666,1
7.0,-80.07,0.155004,30.85,,1649753464.575,1
7.0,-62.14499999999999,,,,1649753464.6683333,1
7.0,29.726666666666663,0.157566,30.85,,1649753464.7616668,1
7.0,36.21333333333333,,,,1649753464.855,1
7.0,41.028333333333336,,,,1649753464.9483333,1
7.0,46.54833333333334,0.156285,30.85,,1649753465.0416667,1
7.0,33.138333333333335,,,,1649753465.135,1
7.0,14.201666666666668,,,,1649753465.2283332,1
7.0,1.7983333333333331,0.152442,30.85,,1649753465.3216667,1
7.0,-11.226666666666667,,,,1649753465.415,1
7.0,-28.275000000000002,0.152442,30.85,,1649753465.5083334,1
7.0,-42.27333333333333,,,,1649753465.6016667,1
7.0,-55.791666666666664,,,,1649753465.695,1
7.0,41.47833333333333,0.153723,30.85,,1649753465.7883334,1
7.0,53.278333333333336,,,,1649753465.8816667,1
7.0,13.5,,,,1649753465.975,1
7.0,13.969999999999999,0.156285,30.85,,1649753466.0683334,1
7.0,14.835,,,,1649753466.1616666,1
7.0,-0.6533333333333333,0.152442,30.81,,1649753466.255,1
7.0,-8.481666666666667,,,,1649753466.3483334,1
7.0,-20.286666666666665,,,,1649753466.4416666,1
7.0,-40.78,0.165252,30.81,,1649753466.535,1
7.0,-64.515,,,,1649753466.6283333,1
7.0,-92.085,,,,1649753466.7216666,1
7.0,-4.401666666666664,0.152442,30.81,,1649753466.815,1
7.0,44.300000000000004,,,,1649753466.9083333,1
7.0,46.343333333333334,0.156285,30.81,,1649753467.0016668,1
7.0,55.681666666666665,,,,1649753467.095,1
7.0,54.18666666666667,,,,1649753467.1883333,1
7.0,34.586666666666666,0.157566,30.83,,1649753467.2816668,1
7.0,21.508000000000003,,,,1649753467.375,1
7.0,10.585000000000003,,,,1649753467.4683332,1
7.0,-2.066666666666667,0.152442,30.83,,1649753467.5616667,1
7.0,-8.265,,,,1649753467.655,1
7.0,-28.033333333333335,,,,1649753467.7483332,1
7.0,-78.27666666666666,0.152442,30.83,,1649753467.8416667,1
7.0,-56.29333333333333,,,,1649753467.935,1
7.0,13.59666666666667,0.152442,30.83,,1649753468.0283334,1
7.0,20.816666666666666,,,,1649753468.1216667,1
7.0,30.381666666666664,,,,1649753468.215,1
7.0,37.43,0.153723,30.83,,1649753468.3083334,1
7.0,25.003333333333334,,,,1649753468.4016666,1
7.0,11.265,,,,1649753468.495,1
7.0,-2.216666666666667,0.155004,30.83,,1649753468.5883334,1
7.0,-18.438333333333333,,,,1649753468.6816666,1
7.0,-39.36833333333334,0.153723,30.83,,1649753468.775,1
7.0,-61.88166666666668,,,,1649753468.8683333,1
7.0,-69.6,,,,1649753468.9616666,1
7.0,26.95,0.153723,30.83,,1649753469.055,1
7.0,45.31166666666667,,,,1649753469.1483333,1
7.0,40.870000000000005,,,,1649753469.2416666,1
7.0,49.14666666666667,0.153723,30.83,,1649753469.335,1
7.0,40.305,,,,1649753469.4283333,1
7.0,18.42,0.156285,30.83,,1649753469.5216668,1
7.0,-0.2583333333333333,,,,1649753469.615,1
7.0,-16.956666666666663,,,,1649753469.7083333,1
7.0,-32.71333333333333,0.156285,30.83,,1649753469.8016667,1
7.0,-54.74666666666667,,,,1649753469.895,1
7.0,-85.645,,,,1649753469.9883332,1
7.0,-38.50833333333333,0.153723,30.83,,1649753470.0816667,1
7.0,41.87166666666667,,,,1649753470.175,1
7.0,37.97666666666667,0.152442,30.81,,1649753470.2683334,1
7.0,38.031666666666666,,,,1649753470.3616667,1
7.0,49.45666666666667,,,,1649753470.455,1
7.0,33.54666666666667,0.153723,30.81,,1649753470.5483334,1
7.0,12.821666666666667,,,,1649753470.6416667,1
7.0,0.6016666666666667,,,,1649753470.735,1
7.0,-12.468333333333334,0.155004,30.81,,1649753470.8283334,1
7.0,-28.101999999999997,,,,1649753470.9216666,1
7.0,-48.165,0.156285,30.81,,1649753471.015,1
7.0,-76.06666666666668,,,,1649753471.1083333,1
7.0,-21.986666666666665,,,,1649753471.2016666,1
7.0,61.24,0.152442,30.83,,1649753471.295,1
7.0,55.300000000000004,,,,1649753471.3883333,1
7.0,67.72333333333334,,,,1649753471.4816666,1
7.0,54.85166666666667,0.152442,30.83,,1649753471.575,1
7.0,8.478333333333332,,,,1649753471.6683333,1
7.0,-13.280000000000001,0.155004,30.83,,1649753471.7616668,1
7.0,-27.895,,,,1649753471.855,1
7.0,-40.556666666666665,,,,1649753471.9483333,1
7.0,-57.08833333333333,0.155004,30.83,,1649753472.0416667,1
7.0,-83.07166666666667,,,,1649753472.135,1
7.0,-31.859999999999996,,,,1649753472.2283332,1
7.0,45.725,0.155004,30.79,,1649753472.3216667,1
7.0,39.98666666666667,,,,1649753472.415,1
7.0,40.51833333333333,0.153723,30.79,,1649753472.5083334,1
7.0,43.26500000000001,,,,1649753472.6016667,1
7.0,27.10666666666667,,,,1649753472.695,1
7.0,9.770000000000001,0.153723,30.79,,1649753472.7883334,1
7.0,-5.058333333333334,,,,1649753472.8816667,1
7.0,-15.526666666666669,,,,1649753472.975,1
7.0,-33.358333333333334,0.156285,30.79,,1649753473.0683334,1
7.0,-47.468333333333334,,,,1649753473.1616666,1
7.0,-37.64166666666667,0.156285,30.81,,1649753473.255,1
7.0,39.68666666666666,,,,1649753473.3483334,1
7.0,11.758333333333333,,,,1649753473.4416666,1
7.0,1.7199999999999998,0.156285,30.81,,1649753473.535,1
7.0,16.30666666666667,,,,1649753473.6283333,1
7.0,18.725,,,,1649753473.7216666,1
7.0,4.463333333333334,0.153723,30.81,,1649753473.815,1
7.0,-5.206666666666666,,,,1649753473.9083333,1
7.0,-17.383333333333336,0.152442,30.81,,1649753474.0016668,1
7.0,-32.52333333333333,,,,1649753474.095,1
7.0,-50.251666666666665,,,,1649753474.1883333,1
7.0,-74.79666666666667,0.157566,30.83,,1649753474.2816668,1
7.0,-12.002,,,,1649753474.375,1
7.0,46.72666666666667,,,,1649753474.4683332,1
7.0,36.905,0.156285,30.83,,1649753474.5616667,1
7.0,40.07666666666666,,,,1649753474.655,1
7.0,44.68833333333333,,,,1649753474.7483332,1
7.0,23.673333333333332,0.156285,30.83,,1649753474.8416667,1
7.0,3.481666666666667,,,,1649753474.935,1
7.0,-11.441666666666668,0.153723,30.83,,1649753475.0283334,1
7.0,-28.091666666666665,,,,1649753475.1216667,1
7.0,-43.403333333333336,,,,1649753475.215,1
7.0,-25.463333333333335,0.155004,30.81,,1649753475.3083334,1
7.0,80.86166666666666,,,,1649753475.4016666,1
7.0,36.01166666666666,,,,1649753475.495,1
7.0,1.6783333333333335,0.157566,30.81,,1649753475.5883334,1
7.0,7.8,,,,1649753475.6816666,1
7.0,9.37,0.157566,30.81,,1649753475.775,1
7.0,0.6166666666666666,,,,1649753475.8683333,1
7.0,-8.691666666666666,,,,1649753475.9616666,1
7.0,-19.416666666666668,0.157566,30.81,,1649753476.055,1
7.0,-33.35333333333333,,,,1649753476.1483333,1
7.0,-54.39333333333334,,,,1649753476.2416666,1
7.0,-82.68666666666665,0.153723,30.81,,1649753476.335,1
7.0,-32.74666666666666,,,,1649753476.4283333,1
7.0,39.105,0.152442,30.81,,1649753476.5216668,1
7.0,34.45666666666666,,,,1649753476.615,1
7.0,40.37166666666667,,,,1649753476.7083333,1
7.0,46.05833333333334,0.156285,30.81,,1649753476.8016667,1
7.0,31.106666666666666,,,,1649753476.895,1
7.0,9.451666666666666,,,,1649753476.9883332,1
7.0,-7.636666666666667,0.157566,30.81,,1649753477.0816667,1
7.0,-21.715,,,,1649753477.175,1
7.0,-43.74166666666667,0.155004,30.79,,1649753477.2683334,1
7.0,-68.58166666666666,,,,1649753477.3616667,1
7.0,-50.5,,,,1649753477.455,1
7.0,39.79,0.153723,30.79,,1649753477.5483334,1
7.0,42.27833333333333,,,,1649753477.6416667,1
7.0,37.81333333333333,,,,1649753477.735,1
7.0,44.72666666666667,0.153723,30.79,,1649753477.8283334,1
7.0,32.42,,,,1649753477.9216666,1
7.0,12.784999999999998,0.156285,30.79,,1649753478.015,1
7.0,-6.976666666666667,,,,1649753478.1083333,1
7.0,-23.556666666666672,,,,1649753478.2016666,1
7.0,-48.01500000000001,0.156285,30.83,,1649753478.295,1
7.0,-76.50833333333333,,,,1649753478.3883333,1
7.0,-54.291666666666664,,,,1649753478.4816666,1
7.0,41.57666666666667,0.156285,30.83,,1649753478.575,1
7.0,43.11833333333333,,,,1649753478.6683333,1
7.0,44.445,0.153723,30.83,,1649753478.7616668,1
7.0,49.94166666666666,,,,1649753478.855,1
7.0,31.738333333333326,,,,1649753478.9483333,1
7.0,12.171666666666667,0.155004,30.83,,1649753479.0416667,1
7.0,-0.9916666666666667,,,,1649753479.135,1
7.0,-12.978333333333333,,,,1649753479.2283332,1
7.0,-29.24333333333333,0.156285,30.81,,1649753479.3216667,1
7.0,-52.855,,,,1649753479.415,1
7.0,-83.32166666666667,0.157566,30.81,,1649753479.5083334,1
7.0,-45.25,,,,1649753479.6016667,1
7.0,43.699999999999996,,,,1649753479.695,1
7.0,43.02,0.157566,30.81,,1649753479.7883334,1
7.0,46.38666666666666,,,,1649753479.8816667,1
7.0,48.24999999999999,,,,1649753479.975,1
7.0,33.358333333333334,0.153723,30.81,,1649753480.0683334,1
7.0,13.780000000000001,,,,1649753480.1616666,1
7.0,-0.5950000000000001,0.155004,30.81,,1649753480.255,1
7.0,-16.21,,,,1649753480.3483334,1
7.0,-33.425000000000004,,,,1649753480.4416666,1
7.0,-52.846666666666664,0.158847,30.81,,1649753480.535,1
7.0,-74.615,,,,1649753480.6283333,1
7.0,12.061666666666666,,,,1649753480.7216666,1
7.0,60.75666666666666,0.158847,30.81,,1649753480.815,1
7.0,48.48666666666667,,,,1649753480.9083333,1
7.0,55.76666666666667,0.157566,30.81,,1649753481.0016668,1
7.0,29.381666666666664,,,,1649753481.095,1
7.0,-5.866666666666667,,,,1649753481.1883333,1
7.0,-11.073333333333332,0.155004,30.79,,1649753481.2816668,1
7.0,-18.314,,,,1649753481.375,1
7.0,-31.930000000000003,,,,1649753481.4683332,1
7.0,-54.19166666666666,0.155004,30.79,,1649753481.5616667,1
7.0,-76.49499999999999,,,,1649753481.655,1
7.0,-85.22500000000001,,,,1649753481.7483332,1
7.0,23.131666666666664,0.157566,30.79,,1649753481.8416667,1
7.0,48.54833333333334,,,,1649753481.935,1
7.0,46.54999999999999,0.157566,30.79,,1649753482.0283334,1
7.0,51.54999999999999,,,,1649753482.1216667,1
7.0,43.818333333333335,,,,1649753482.215,1
7.0,20.063333333333336,0.157566,30.81,,1649753482.3083334,1
7.0,1.4883333333333333,,,,1649753482.4016666,1
7.0,-13.478333333333333,,,,1649753482.495,1
7.0,-29.94666666666667,0.155004,30.81,,1649753482.5883334,1
7.0,-51.561666666666675,,,,1649753482.6816666,1
7.0,-82.38000000000001,0.155004,30.81,,1649753482.775,1
7.0,-29.526666666666667,,,,1649753482.8683333,1
7.0,55.54999999999999,,,,1649753482.9616666,1
7.0,50.13166666666667,0.157566,30.81,,1649753483.055,1
7.0,53.43000000000001,,,,1649753483.1483333,1
7.0,64.16000000000001,,,,1649753483.2416666,1
7.0,58.86833333333334,0.158847,30.79,,1649753483.335,1
7.0,56.52,,,,1649753483.4283333,1
7.0,17.21166666666667,0.157566,30.79,,1649753483.5216668,1
7.0,-62.718333333333334,,,,1649753483.615,1
7.0,-91.825,,,,1649753483.7083333,1
7.0,-102.745,0.156285,30.79,,1649753483.8016667,1
7.0,-79.14833333333334,,,,1649753483.895,1
7.0,24.161666666666665,,,,1649753483.9883332,1
7.0,35.913333333333334,0.156285,30.79,,1649753484.0816667,1
7.0,37.25166666666667,,,,1649753484.175,1
7.0,45.63833333333333,0.158847,30.79,,1649753484.2683334,1
7.0,34.483333333333334,,,,1649753484.3616667,1
7.0,12.793333333333335,,,,1649753484.455,1
7.0,-3.17,0.158847,30.79,,1649753484.5483334,1
7.0,-20.669999999999998,,,,1649753484.6416667,1
7.0,-41.40333333333333,,,,1649753484.735,1
7.0,-63.66833333333333,0.158847,30.79,,1649753484.8283334,1
7.0,-93.41600000000001,,,,1649753484.9216666,1
7.0,-16.015,0.156285,30.79,,1649753485.015,1
7.0,48.461666666666666,,,,1649753485.1083333,1
7.0,42.843333333333334,,,,1649753485.2016666,1
7.0,45.576666666666675,0.155004,30.79,,1649753485.295,1
7.0,47.00833333333333,,,,1649753485.3883333,1
7.0,26.999999999999996,,,,1649753485.4816666,1
7.0,10.851666666666665,0.157566,30.79,,1649753485.575,1
7.0,0.1200000000000001,,,,1649753485.6683333,1
7.0,-15.885,0.157566,30.79,,1649753485.7616668,1
7.0,-40.17666666666667,,,,1649753485.855,1
7.0,-63.651666666666664,,,,1649753485.9483333,1
7.0,-73.04333333333334,0.157566,30.79,,1649753486.0416667,1
7.0,31.068333333333328,,,,1649753486.135,1
7.0,45.26499999999999,,,,1649753486.2283332,1
7.0,34.615,0.155004,30.79,,1649753486.3216667,1
7.0,45.126666666666665,,,,1649753486.415,1
7.0,35.794999999999995,0.156285,30.79,,1649753486.5083334,1
7.0,13.356666666666664,,,,1649753486.6016667,1
7.0,-3.1383333333333336,,,,1649753486.695,1
7.0,-19.991666666666667,0.160128,30.79,,1649753486.7883334,1
7.0,-39.90666666666666,,,,1649753486.8816667,1
7.0,-61.928333333333335,,,,1649753486.975,1
7.0,-95.85000000000001,0.160128,30.79,,1649753487.0683334,1
7.0,-23.831666666666667,,,,1649753487.1616666,1
7.0,51.86166666666667,0.160128,30.79,,1649753487.255,1
7.0,46.43,,,,1649753487.3483334,1
7.0,52.593333333333334,,,,1649753487.4416666,1
7.0,54.33833333333333,0.156285,30.79,,1649753487.535,1
7.0,32.931666666666665,,,,1649753487.6283333,1
7.0,10.674999999999999,,,,1649753487.7216666,1
7.0,-6.1816666666666675,0.157566,30.79,,1649753487.815,1
7.0,-22.659999999999997,,,,1649753487.9083333,1
7.0,-43.11333333333334,0.160128,30.79,,1649753488.0016668,1
7.0,-67.15,,,,1649753488.095,1
7.0,-85.09333333333333,,,,1649753488.1883333,1
7.0,19.883333333333336,0.158847,30.79,,1649753488.2816668,1
7.0,53.339999999999996,,,,1649753488.375,1
7.0,39.945,,,,1649753488.4683332,1
7.0,47.998333333333335,0.158847,30.79,,1649753488.5616667,1
7.0,46.685,,,,1649753488.655,1
7.0,23.69666666666667,,,,1649753488.7483332,1
7.0,2.8233333333333337,0.156285,30.79,,1649753488.8416667,1
7.0,-12.088333333333333,,,,1649753488.935,1
7.0,-30.811666666666667,0.155004,30.79,,1649753489.0283334,1
7.0,-46.958333333333336,,,,1649753489.1216667,1
7.0,-28.291666666666668,,,,1649753489.215,1
7.0,33.721666666666664,0.155004,30.81,,1649753489.3083334,1
7.0,17.718333333333334,,,,1649753489.4016666,1
7.0,13.441666666666668,,,,1649753489.495,1
7.0,26.061666666666667,0.158847,30.81,,1649753489.5883334,1
7.0,20.455,,,,1649753489.6816666,1
7.0,5.22,0.157566,30.81,,1649753489.775,1
7.0,-7.241666666666667,,,,1649753489.8683333,1
7.0,-20.665,,,,1649753489.9616666,1
7.0,-41.31333333333334,0.158847,30.81,,1649753490.055,1
7.0,-63.115,,,,1649753490.1483333,1
7.0,-94.25,,,,1649753490.2416666,1
7.0,-13.801666666666668,0.156285,30.79,,1649753490.335,1
7.0,52.185,,,,1649753490.4283333,1
7.0,45.88166666666667,0.155004,30.79,,1649753490.5216668,1
7.0,52.32500000000001,,,,1649753490.615,1
7.0,53.991666666666674,,,,1649753490.7083333,1
7.0,40.975,0.157566,30.79,,1649753490.8016667,1
7.0,34.711666666666666,,,,1649753490.895,1
7.0,35.86333333333334,,,,1649753490.9883332,1
7.0,24.978333333333335,0.160128,30.79,,1649753491.0816667,1
7.0,-65.51333333333334,,,,1649753491.175,1
7.0,-120.88499999999999,0.158847,30.77,,1649753491.2683334,1
7.0,-127.69333333333333,,,,1649753491.3616667,1
7.0,-12.026666666666666,,,,1649753491.455,1
7.0,32.95166666666667,0.156285,30.77,,1649753491.5483334,1
7.0,35.80833333333334,,,,1649753491.6416667,1
7.0,50.663333333333334,,,,1649753491.735,1
7.0,46.446666666666665,0.155004,30.77,,1649753491.8283334,1
7.0,24.784,,,,1649753491.9216666,1
7.0,7.336666666666666,0.158847,30.77,,1649753492.015,1
7.0,-9.636666666666667,,,,1649753492.1083333,1
7.0,-29.438333333333333,,,,1649753492.2016666,1
7.0,-56.36833333333334,0.158847,30.79,,1649753492.295,1
7.0,-92.23166666666667,,,,1649753492.3883333,1
7.0,-10.456666666666665,,,,1649753492.4816666,1
7.0,51.40833333333333,0.158847,30.79,,1649753492.575,1
7.0,48.41,,,,1649753492.6683333,1
7.0,60.723333333333336,0.156285,30.79,,1649753492.7616668,1
7.0,72.23833333333334,,,,1649753492.855,1
7.0,71.275,,,,1649753492.9483333,1
7.0,62.296666666666674,0.155004,30.79,,1649753493.0416667,1
7.0,-12.483333333333334,,,,1649753493.135,1
7.0,-82.20666666666666,,,,1649753493.2283332,1
7.0,-95.66166666666668,0.160128,30.81,,1649753493.3216667,1
7.0,-97.15666666666665,,,,1649753493.415,1
7.0,-108.70333333333333,0.158847,30.81,,1649753493.5083334,1
7.0,-65.03666666666668,,,,1649753493.6016667,1
7.0,44.80666666666667,,,,1649753493.695,1
7.0,52.34166666666667,0.160128,30.81,,1649753493.7883334,1
7.0,54.92833333333334,,,,1649753493.8816667,1
7.0,60.696666666666665,,,,1649753493.975,1
7.0,43.593333333333334,0.157566,30.81,,1649753494.0683334,1
7.0,23.569999999999997,,,,1649753494.1616666,1
7.0,7.38,0.156285,30.79,,1649753494.255,1
7.0,-7.506666666666667,,,,1649753494.3483334,1
7.0,-24.671666666666663,,,,1649753494.4416666,1
7.0,-48.423333333333325,0.155004,30.79,,1649753494.535,1
7.0,-78.71833333333333,,,,1649753494.6283333,1
7.0,-40.806666666666665,,,,1649753494.7216666,1
7.0,53.008333333333326,0.158847,30.79,,1649753494.815,1
7.0,44.585,,,,1649753494.9083333,1
7.0,42.071666666666665,0.158847,30.79,,1649753495.0016668,1
7.0,49.73,,,,1649753495.095,1
7.0,33.695,,,,1649753495.1883333,1
7.0,11.633333333333333,0.160128,30.77,,1649753495.2816668,1
7.0,-2.696,,,,1649753495.375,1
7.0,-18.92833333333333,,,,1649753495.4683332,1
7.0,-43.58166666666667,0.157566,30.77,,1649753495.5616667,1
7.0,-70.06166666666667,,,,1649753495.655,1
7.0,-93.54,,,,1649753495.7483332,1
7.0,14.983333333333333,0.155004,30.77,,1649753495.8416667,1
7.0,52.68833333333333,,,,1649753495.935,1
7.0,43.20333333333334,0.158847,30.77,,1649753496.0283334,1
7.0,50.583333333333336,,,,1649753496.1216667,1
7.0,46.23166666666666,,,,1649753496.215,1
7.0,22.310000000000002,0.158847,30.79,,1649753496.3083334,1
7.0,2.8683333333333336,,,,1649753496.4016666,1
7.0,-13.876666666666665,,,,1649753496.495,1
7.0,-32.125,0.157566,30.79,,1649753496.5883334,1
7.0,-57.57833333333334,,,,1649753496.6816666,1
7.0,-88.35333333333334,0.156285,30.79,,1649753496.775,1
7.0,-69.435,,,,1649753496.8683333,1
7.0,43.62166666666667,,,,1649753496.9616666,1
7.0,48.90166666666667,0.156285,30.79,,1649753497.055,1
7.0,48.62166666666667,,,,1649753497.1483333,1
7.0,55.80166666666667,,,,1649753497.2416666,1
7.0,43.048333333333325,0.158847,30.77,,1649753497.335,1
7.0,19.51,,,,1649753497.4283333,1
7.0,-0.06833333333333336,0.160128,30.77,,1649753497.5216668,1
7.0,-15.540000000000001,,,,1649753497.615,1
7.0,-37.791666666666664,,,,1649753497.7083333,1
7.0,-60.64833333333334,0.157566,30.77,,1649753497.8016667,1
7.0,-83.0,,,,1649753497.895,1
7.0,19.256666666666664,,,,1649753497.9883332,1
7.0,55.41166666666666,0.156285,30.77,,1649753498.0816667,1
7.0,36.82999999999999,,,,1649753498.175,1
7.0,46.90666666666667,0.156285,30.77,,1649753498.2683334,1
7.0,41.425000000000004,,,,1649753498.3616667,1
7.0,17.741666666666664,,,,1649753498.455,1
7.0,2.856666666666667,0.157566,30.77,,1649753498.5483334,1
7.0,-8.321666666666667,,,,1649753498.6416667,1
7.0,-15.081666666666665,,,,1649753498.735,1
7.0,-11.368333333333332,0.157566,30.77,,1649753498.8283334,1
7.0,-26.734,,,,1649753498.9216666,1
7.0,-34.046666666666674,0.157566,30.77,,1649753499.015,1
7.0,-32.718333333333334,,,,1649753499.1083333,1
7.0,-25.495,,,,1649753499.2016666,1
7.0,6.471666666666667,0.156285,30.79,,1649753499.295,1
7.0,30.42833333333333,,,,1649753499.3883333,1
7.0,23.563333333333333,,,,1649753499.4816666,1
7.0,12.605000000000002,0.155004,30.79,,1649753499.575,1
7.0,-5.419999999999999,,,,1649753499.6683333,1
7.0,-27.313333333333333,0.160128,30.79,,1649753499.7616668,1
7.0,-53.03666666666667,,,,1649753499.855,1
7.0,-85.51499999999999,,,,1649753499.9483333,1
7.0,-9.59666666666667,0.158847,30.79,,1649753500.0416667,1
7.0,55.89833333333333,,,,1649753500.135,1
7.0,39.328333333333326,,,,1649753500.2283332,1
7.0,45.51666666666667,0.160128,30.77,,1649753500.3216667,1
7.0,52.028333333333336,,,,1649753500.415,1
7.0,25.955,0.157566,30.77,,1649753500.5083334,1
7.0,3.3049999999999997,,,,1649753500.6016667,1
7.0,-18.476666666666667,,,,1649753500.695,1
7.0,-41.32666666666666,0.158847,30.77,,1649753500.7883334,1
7.0,-67.27,,,,1649753500.8816667,1
7.0,-103.70833333333336,,,,1649753500.975,1
7.0,-12.69,0.161409,30.77,,1649753501.0683334,1
7.0,62.63666666666666,,,,1649753501.1616666,1
7.0,54.22,0.161409,30.79,,1649753501.255,1
7.0,56.949999999999996,,,,1649753501.3483334,1
7.0,56.028333333333336,,,,1649753501.4416666,1
7.0,29.581666666666667,0.161409,30.79,,1649753501.535,1
7.0,6.831666666666666,,,,1649753501.6283333,1
7.0,-9.536666666666667,,,,1649753501.7216666,1
7.0,-26.845,0.157566,30.79,,1649753501.815,1
7.0,-49.693333333333335,,,,1649753501.9083333,1
7.0,-74.82833333333333,0.158847,30.79,,1649753502.0016668,1
7.0,-103.53166666666668,,,,1649753502.095,1
7.0,15.118333333333334,,,,1649753502.1883333,1
7.0,62.38666666666666,0.161409,30.79,,1649753502.2816668,1
7.0,49.036,,,,1649753502.375,1
7.0,55.47,,,,1649753502.4683332,1
7.0,59.35999999999999,0.160128,30.79,,1649753502.5616667,1
7.0,37.815,,,,1649753502.655,1
7.0,20.821666666666662,,,,1649753502.7483332,1
7.0,11.773333333333333,0.161409,30.79,,1649753502.8416667,1
7.0,-18.81833333333333,,,,1649753502.935,1
7.0,-77.875,0.158847,30.79,,1649753503.0283334,1
7.0,-119.45333333333333,,,,1649753503.1216667,1
7.0,-21.911666666666665,,,,1649753503.215,1
7.0,43.28666666666667,0.158847,30.79,,1649753503.3083334,1
7.0,37.11666666666667,,,,1649753503.4016666,1
7.0,45.35666666666666,,,,1649753503.495,1
7.0,46.605,0.161409,30.79,,1649753503.5883334,1
7.0,23.295,,,,1649753503.6816666,1
7.0,5.136666666666668,0.161409,30.79,,1649753503.775,1
7.0,-15.659999999999998,,,,1649753503.8683333,1
7.0,-36.876666666666665,,,,1649753503.9616666,1
7.0,-64.79,0.161409,30.79,,1649753504.055,1
7.0,-101.635,,,,1649753504.1483333,1
7.0,-58.585,,,,1649753504.2416666,1
7.0,58.211666666666666,0.158847,30.77,,1649753504.335,1
7.0,53.89833333333333,,,,1649753504.4283333,1
7.0,52.038333333333334,0.157566,30.77,,1649753504.5216668,1
7.0,56.85333333333333,,,,1649753504.615,1
7.0,42.16833333333333,,,,1649753504.7083333,1
7.0,19.173333333333332,0.157566,30.77,,1649753504.8016667,1
7.0,1.4550000000000003,,,,1649753504.895,1
7.0,-19.095,,,,1649753504.9883332,1
7.0,-39.77333333333333,0.160128,30.77,,1649753505.0816667,1
7.0,-63.616666666666674,,,,1649753505.175,1
7.0,-97.32833333333333,0.16269,30.77,,1649753505.2683334,1
7.0,-7.466666666666664,,,,1649753505.3616667,1
7.0,62.31666666666666,,,,1649753505.455,1
7.0,41.303333333333335,0.160128,30.77,,1649753505.5483334,1
7.0,45.55166666666667,,,,1649753505.6416667,1
7.0,48.93666666666666,,,,1649753505.735,1
7.0,23.615,0.156285,30.77,,1649753505.8283334,1
7.0,3.7119999999999997,,,,1649753505.9216666,1
7.0,-16.858333333333334,0.156285,30.77,,1649753506.015,1
7.0,-42.93,,,,1649753506.1083333,1
7.0,-68.73333333333333,,,,1649753506.2016666,1
7.0,-99.06166666666667,0.160128,30.77,,1649753506.295,1
7.0,10.589999999999998,,,,1649753506.3883333,1
7.0,61.42666666666667,,,,1649753506.4816666,1
7.0,45.833333333333336,0.160128,30.77,,1649753506.575,1
7.0,50.330000000000005,,,,1649753506.6683333,1
7.0,48.04,0.160128,30.77,,1649753506.7616668,1
7.0,26.828333333333333,,,,1649753506.855,1
7.0,5.134999999999999,,,,1649753506.9483333,1
7.0,-13.428333333333333,0.157566,30.77,,1649753507.0416667,1
7.0,-33.928333333333335,,,,1649753507.135,1
7.0,-62.156666666666666,,,,1649753507.2283332,1
7.0,-89.85833333333333,0.158847,30.79,,1649753507.3216667,1
7.0,-87.2,,,,1649753507.415,1
7.0,38.79333333333333,0.160128,30.79,,1649753507.5083334,1
7.0,50.44166666666667,,,,1649753507.6016667,1
7.0,43.031666666666666,,,,1649753507.695,1
7.0,51.05833333333334,0.160128,30.79,,1649753507.7883334,1
7.0,40.95,,,,1649753507.8816667,1
7.0,17.47,,,,1649753507.975,1
7.0,1.5350000000000001,0.160128,30.79,,1649753508.0683334,1
7.0,-13.298333333333332,,,,1649753508.1616666,1
7.0,-31.10833333333333,0.158847,30.73,,1649753508.255,1
7.0,-49.196666666666665,,,,1649753508.3483334,1
7.0,-74.15499999999999,,,,1649753508.4416666,1
7.0,15.836666666666668,0.158847,30.73,,1649753508.535,1
7.0,107.75666666666666,,,,1649753508.6283333,1
7.0,46.02333333333334,,,,1649753508.7216666,1
7.0,6.773333333333333,0.158847,30.73,,1649753508.815,1
7.0,9.045,,,,1649753508.9083333,1
7.0,-4.503333333333333,0.16269,30.73,,1649753509.0016668,1
7.0,-14.243333333333334,,,,1649753509.095,1
7.0,-24.295,,,,1649753509.1883333,1
7.0,-41.31666666666667,0.161409,30.77,,1649753509.2816668,1
7.0,-61.988,,,,1649753509.375,1
7.0,-97.00333333333333,,,,1649753509.4683332,1
7.0,-17.6,0.161409,30.77,,1649753509.5616667,1
7.0,61.47166666666667,,,,1649753509.655,1
7.0,46.22833333333333,,,,1649753509.7483332,1
7.0,46.24666666666667,0.157566,30.77,,1649753509.8416667,1
7.0,50.23999999999999,,,,1649753509.935,1
7.0,31.77666666666667,0.158847,30.77,,1649753510.0283334,1
7.0,16.976666666666667,,,,1649753510.1216667,1
7.0,3.8816666666666664,,,,1649753510.215,1
7.0,-8.816666666666666,0.161409,30.79,,1649753510.3083334,1
7.0,-25.22333333333333,,,,1649753510.4016666,1
7.0,-33.56333333333333,,,,1649753510.495,1
7.0,-40.791666666666664,0.161409,30.79,,1649753510.5883334,1
7.0,5.5183333333333335,,,,1649753510.6816666,1
7.0,-10.928333333333333,0.160128,30.79,,1649753510.775,1
7.0,-11.683333333333332,,,,1649753510.8683333,1
7.0,12.059999999999997,,,,1649753510.9616666,1
7.0,22.22,0.157566,30.79,,1649753511.055,1
7.0,12.051666666666668,,,,1649753511.1483333,1
7.0,1.8083333333333336,,,,1649753511.2416666,1
7.0,-10.084999999999999,0.157566,30.77,,1649753511.335,1
7.0,-27.718333333333334,,,,1649753511.4283333,1
7.0,-51.58166666666667,0.161409,30.77,,1649753511.5216668,1
7.0,-84.685,,,,1649753511.615,1
7.0,-31.038333333333338,,,,1649753511.7083333,1
7.0,64.53500000000001,0.160128,30.77,,1649753511.8016667,1
7.0,52.70000000000001,,,,1649753511.895,1
7.0,55.51833333333334,,,,1649753511.9883332,1
7.0,70.12833333333333,0.161409,30.77,,1649753512.0816667,1
7.0,55.58500000000001,,,,1649753512.175,1
7.0,44.39166666666667,0.158847,30.77,,1649753512.2683334,1
7.0,41.099999999999994,,,,1649753512.3616667,1
7.0,-16.128333333333334,,,,1649753512.455,1
7.0,-123.32333333333332,0.157566,30.77,,1649753512.5483334,1
7.0,-170.77999999999997,,,,1649753512.6416667,1
7.0,-70.91833333333334,,,,1649753512.735,1
7.0,34.07333333333333,0.161409,30.77,,1649753512.8283334,1
7.0,43.438,,,,1649753512.9216666,1
7.0,55.27833333333333,0.16269,30.77,,1649753513.015,1
7.0,59.35999999999999,,,,1649753513.1083333,1
7.0,40.435,,,,1649753513.2016666,1
7.0,16.198333333333334,0.161409,30.77,,1649753513.295,1
7.0,-0.5083333333333333,,,,1649753513.3883333,1
7.0,-20.468333333333334,,,,1649753513.4816666,1
7.0,-45.44333333333333,0.160128,30.77,,1649753513.575,1
7.0,-72.11666666666666,,,,1649753513.6683333,1
7.0,-105.34833333333334,0.158847,30.77,,1649753513.7616668,1
7.0,6.3116666666666665,,,,1649753513.855,1
7.0,70.52666666666667,,,,1649753513.9483333,1
7.0,61.97666666666667,0.161409,30.77,,1649753514.0416667,1
7.0,76.505,,,,1649753514.135,1
7.0,88.42,,,,1649753514.2283332,1
7.0,38.52333333333333,0.161409,30.75,,1649753514.3216667,1
7.0,-21.73,,,,1649753514.415,1
7.0,-44.345,0.161409,30.75,,1649753514.5083334,1
7.0,-54.946666666666665,,,,1649753514.6016667,1
7.0,-70.61666666666666,,,,1649753514.695,1
7.0,-95.86500000000001,0.158847,30.75,,1649753514.7883334,1
7.0,-64.93166666666666,,,,1649753514.8816667,1
7.0,55.645,,,,1649753514.975,1
7.0,54.745000000000005,0.158847,30.75,,1649753515.0683334,1
7.0,46.538333333333334,,,,1649753515.1616666,1
7.0,56.76333333333334,0.161409,30.77,,1649753515.255,1
7.0,39.14333333333334,,,,1649753515.3483334,1
7.0,12.053333333333333,,,,1649753515.4416666,1
7.0,-11.561666666666667,0.16269,30.77,,1649753515.535,1
7.0,-32.02666666666667,,,,1649753515.6283333,1
7.0,-61.22666666666667,,,,1649753515.7216666,1
7.0,-96.63166666666667,0.161409,30.77,,1649753515.815,1
7.0,-85.27833333333334,,,,1649753515.9083333,1
7.0,51.54,0.172938,30.77,,1649753516.0016668,1
7.0,63.205000000000005,,,,1649753516.095,1
7.0,58.796666666666674,,,,1649753516.1883333,1
7.0,67.74,0.158847,30.75,,1649753516.2816668,1
7.0,57.431999999999995,,,,1649753516.375,1
7.0,30.645,,,,1649753516.4683332,1
7.0,11.246666666666664,0.161409,30.75,,1649753516.5616667,1
7.0,-3.1733333333333333,,,,1649753516.655,1
7.0,-22.953333333333333,,,,1649753516.7483332,1
7.0,-48.92666666666667,0.161409,30.75,,1649753516.8416667,1
7.0,-75.69,,,,1649753516.935,1
7.0,-114.25166666666667,0.160128,30.75,,1649753517.0283334,1
7.0,-22.72,,,,1649753517.1216667,1
7.0,61.535000000000004,,,,1649753517.215,1
7.0,49.83833333333333,0.160128,30.77,,1649753517.3083334,1
7.0,54.788333333333334,,,,1649753517.4016666,1
7.0,57.026666666666664,,,,1649753517.495,1
7.0,35.955000000000005,0.158847,30.77,,1649753517.5883334,1
7.0,18.31833333333333,,,,1649753517.6816666,1
7.0,6.816666666666666,0.161409,30.77,,1649753517.775,1
7.0,-4.3533333333333335,,,,1649753517.8683333,1
7.0,-18.78333333333333,,,,1649753517.9616666,1
7.0,-32.34166666666667,0.16269,30.77,,1649753518.055,1
7.0,-46.065000000000005,,,,1649753518.1483333,1
7.0,-3.9549999999999996,,,,1649753518.2416666,1
7.0,-2.1333333333333333,0.16269,30.77,,1649753518.335,1
7.0,5.94,,,,1649753518.4283333,1
7.0,27.828333333333333,0.158847,30.77,,1649753518.5216668,1
7.0,19.493333333333336,,,,1649753518.615,1
7.0,0.6016666666666667,,,,1649753518.7083333,1
7.0,-12.705,0.160128,30.77,,1649753518.8016667,1
7.0,-29.73333333333333,,,,1649753518.895,1
7.0,-60.21666666666666,,,,1649753518.9883332,1
7.0,-95.75666666666666,0.161409,30.77,,1649753519.0816667,1
7.0,-89.10833333333333,,,,1649753519.175,1
7.0,43.97166666666667,0.16269,30.75,,1649753519.2683334,1
7.0,61.16833333333333,,,,1649753519.3616667,1
7.0,57.504999999999995,,,,1649753519.455,1
7.0,65.59166666666668,0.161409,30.75,,1649753519.5483334,1
7.0,50.788333333333334,,,,1649753519.6416667,1
7.0,25.89166666666667,,,,1649753519.735,1
7.0,5.831666666666667,0.158847,30.75,,1649753519.8283334,1
7.0,-8.228,,,,1649753519.9216666,1
7.0,-28.098333333333333,0.160128,30.75,,1649753520.015,1
7.0,-54.315000000000005,,,,1649753520.1083333,1
7.0,-83.52,,,,1649753520.2016666,1
7.0,-104.895,0.161409,30.77,,1649753520.295,1
7.0,25.675,,,,1649753520.3883333,1
7.0,62.88833333333333,,,,1649753520.4816666,1
7.0,51.12833333333333,0.16269,30.77,,1649753520.575,1
7.0,60.76666666666667,,,,1649753520.6683333,1
7.0,57.16166666666666,0.16269,30.77,,1649753520.7616668,1
7.0,32.96333333333333,,,,1649753520.855,1
7.0,12.615,,,,1649753520.9483333,1
7.0,-4.72,0.161409,30.77,,1649753521.0416667,1
7.0,-24.075,,,,1649753521.135,1
7.0,-49.971666666666664,,,,1649753521.2283332,1
7.0,-77.935,0.158847,30.77,,1649753521.3216667,1
7.0,-87.84833333333334,,,,1649753521.415,1
7.0,35.105,0.157566,30.77,,1649753521.5083334,1
7.0,55.94666666666666,,,,1649753521.6016667,1
7.0,36.343333333333334,,,,1649753521.695,1
7.0,49.25,0.16269,30.77,,1649753521.7883334,1
7.0,40.63666666666666,,,,1649753521.8816667,1
7.0,16.716666666666665,,,,1649753521.975,1
7.0,-0.8600000000000003,0.16269,30.77,,1649753522.0683334,1
7.0,-17.49,,,,1649753522.1616666,1
7.0,-39.13333333333333,0.16269,30.75,,1649753522.255,1
7.0,-69.85,,,,1649753522.3483334,1
7.0,-110.645,,,,1649753522.4416666,1
7.0,-32.714999999999996,0.158847,30.75,,1649753522.535,1
7.0,60.666666666666664,,,,1649753522.6283333,1
7.0,51.05500000000001,,,,1649753522.7216666,1
7.0,54.84333333333333,0.158847,30.75,,1649753522.815,1
7.0,56.345,,,,1649753522.9083333,1
7.0,36.961666666666666,0.16269,30.75,,1649753523.0016668,1
7.0,15.944999999999999,,,,1649753523.095,1
7.0,-2.546666666666667,,,,1649753523.1883333,1
7.0,-18.755,0.16269,30.77,,1649753523.2816668,1
7.0,-35.965999999999994,,,,1649753523.375,1
7.0,-63.31166666666667,,,,1649753523.4683332,1
7.0,-95.23500000000001,0.161409,30.77,,1649753523.5616667,1
7.0,-70.67,,,,1649753523.655,1
7.0,52.330000000000005,,,,1649753523.7483332,1
7.0,56.10999999999999,0.158847,30.77,,1649753523.8416667,1
7.0,58.66833333333333,,,,1649753523.935,1
7.0,77.91499999999999,0.160128,30.77,,1649753524.0283334,1
7.0,76.46166666666666,,,,1649753524.1216667,1
7.0,60.92166666666666,,,,1649753524.215,1
7.0,9.66,0.16269,30.73,,1649753524.3083334,1
7.0,-52.635,,,,1649753524.4016666,1
7.0,-87.57999999999998,,,,1649753524.495,1
7.0,-100.42500000000001,0.16269,30.73,,1649753524.5883334,1
7.0,-111.295,,,,1649753524.6816666,1
7.0,17.878333333333334,0.161409,30.73,,1649753524.775,1
7.0,53.035000000000004,,,,1649753524.8683333,1
7.0,34.818333333333335,,,,1649753524.9616666,1
7.0,48.06166666666667,0.160128,30.73,,1649753525.055,1
7.0,45.73,,,,1649753525.1483333,1
7.0,21.996666666666666,,,,1649753525.2416666,1
7.0,-0.29166666666666635,0.158847,30.79,,1649753525.335,1
7.0,-20.2,,,,1649753525.4283333,1
7.0,-47.21,0.158847,30.79,,1649753525.5216668,1
7.0,-74.45666666666668,,,,1649753525.615,1
7.0,-114.41000000000001,,,,1649753525.7083333,1
7.0,-13.719999999999999,0.16269,30.79,,1649753525.8016667,1
7.0,65.07833333333332,,,,1649753525.895,1
7.0,52.99333333333334,,,,1649753525.9883332,1
7.0,56.77833333333333,0.161409,30.79,,1649753526.0816667,1
7.0,61.419999999999995,,,,1649753526.175,1
7.0,37.82,0.16269,30.73,,1649753526.2683334,1
7.0,16.603333333333335,,,,1649753526.3616667,1
7.0,0.006666666666666821,,,,1649753526.455,1
7.0,-17.958333333333332,0.158847,30.73,,1649753526.5483334,1
7.0,-37.68666666666667,,,,1649753526.6416667,1
7.0,-65.19666666666666,,,,1649753526.735,1
7.0,-100.77,0.160128,30.73,,1649753526.8283334,1
7.0,-46.053999999999995,,,,1649753526.9216666,1
7.0,58.28333333333333,0.16269,30.73,,1649753527.015,1
7.0,49.10166666666667,,,,1649753527.1083333,1
7.0,42.26166666666666,,,,1649753527.2016666,1
7.0,53.80833333333334,0.161409,30.73,,1649753527.295,1
7.0,37.46333333333333,,,,1649753527.3883333,1
7.0,11.795,,,,1649753527.4816666,1
7.0,-12.563333333333333,0.161409,30.73,,1649753527.575,1
7.0,-35.86333333333334,,,,1649753527.6683333,1
7.0,-63.85666666666666,0.158847,30.73,,1649753527.7616668,1
7.0,-101.25666666666666,,,,1649753527.855,1
7.0,-5.578333333333329,,,,1649753527.9483333,1
7.0,66.61,0.158847,30.73,,1649753528.0416667,1
7.0,46.20000000000001,,,,1649753528.135,1
7.0,47.826666666666675,,,,1649753528.2283332,1
7.0,48.660000000000004,0.16269,30.75,,1649753528.3216667,1
7.0,23.308333333333334,,,,1649753528.415,1
7.0,0.6800000000000003,0.161409,30.75,,1649753528.5083334,1
7.0,-23.165000000000003,,,,1649753528.6016667,1
7.0,-48.75833333333333,,,,1649753528.695,1
7.0,-77.54,0.160128,30.75,,1649753528.7883334,1
7.0,-119.08999999999999,,,,1649753528.8816667,1
7.0,-25.81833333333333,,,,1649753528.975,1
7.0,64.97666666666667,0.158847,30.75,,1649753529.0683334,1
7.0,51.76333333333333,,,,1649753529.1616666,1
7.0,56.324999999999996,0.160128,30.75,,1649753529.255,1
7.0,61.02333333333334,,,,1649753529.3483334,1
7.0,40.75000000000001,,,,1649753529.4416666,1
7.0,21.275,0.16269,30.75,,1649753529.535,1
7.0,5.293333333333333,,,,1649753529.6283333,1
7.0,-6.460000000000001,,,,1649753529.7216666,1
7.0,-26.093333333333334,0.16269,30.75,,1649753529.815,1
7.0,-38.74,,,,1649753529.9083333,1
7.0,-58.895,0.16269,30.75,,1649753530.0016668,1
7.0,-0.45999999999999847,,,,1649753530.095,1
7.0,18.398333333333333,,,,1649753530.1883333,1
7.0,19.80666666666667,0.161409,30.75,,1649753530.2816668,1
7.0,34.434,,,,1649753530.375,1
7.0,39.535,,,,1649753530.4683332,1
7.0,14.685,0.160128,30.75,,1649753530.5616667,1
7.0,-4.826666666666667,,,,1649753530.655,1
7.0,-26.65833333333333,,,,1649753530.7483332,1
7.0,-46.910000000000004,0.16269,30.75,,1649753530.8416667,1
7.0,-73.705,,,,1649753530.935,1
7.0,-109.70833333333333,0.163971,30.75,,1649753531.0283334,1
7.0,-38.21,,,,1649753531.1216667,1
7.0,66.74333333333334,,,,1649753531.215,1
7.0,52.30166666666667,0.163971,30.75,,1649753531.3083334,1
7.0,49.91166666666666,,,,1649753531.4016666,1
7.0,57.324999999999996,,,,1649753531.495,1
7.0,34.685,0.160128,30.75,,1649753531.5883334,1
7.0,9.360000000000001,,,,1649753531.6816666,1
7.0,-8.815,0.158847,30.75,,1649753531.775,1
7.0,-29.088333333333335,,,,1649753531.8683333,1
7.0,-63.143333333333324,,,,1649753531.9616666,1
7.0,-98.28166666666665,0.158847,30.75,,1649753532.055,1
7.0,-103.52333333333335,,,,1649753532.1483333,1
7.0,49.16,,,,1649753532.2416666,1
7.0,70.65833333333335,0.163971,30.73,,1649753532.335,1
7.0,55.96833333333334,,,,1649753532.4283333,1
7.0,62.464999999999996,0.165252,30.73,,1649753532.5216668,1
7.0,53.43333333333333,,,,1649753532.615,1
7.0,24.168333333333333,,,,1649753532.7083333,1
7.0,3.3249999999999997,0.16269,30.73,,1649753532.8016667,1
7.0,-12.288333333333336,,,,1649753532.895,1
7.0,-32.218333333333334,,,,1649753532.9883332,1
7.0,-62.70000000000001,0.160128,30.73,,1649753533.0816667,1
7.0,-93.05666666666667,,,,1649753533.175,1
7.0,-102.54166666666667,0.160128,30.73,,1649753533.2683334,1
7.0,42.44833333333333,,,,1649753533.3616667,1
7.0,66.37833333333333,,,,1649753533.455,1
7.0,51.03333333333333,0.16269,30.73,,1649753533.5483334,1
7.0,62.555,,,,1649753533.6416667,1
7.0,58.13666666666668,,,,1649753533.735,1
7.0,35.545,0.163971,30.73,,1649753533.8283334,1
7.0,23.056,,,,1649753533.9216666,1
7.0,22.38,0.16269,30.73,,1649753534.015,1
7.0,17.67833333333333,,,,1649753534.1083333,1
7.0,-25.711666666666662,,,,1649753534.2016666,1
7.0,-100.67833333333333,0.160128,30.75,,1649753534.295,1
7.0,-32.60333333333333,,,,1649753534.3883333,1
7.0,-19.123333333333335,,,,1649753534.4816666,1
7.0,-0.5599999999999993,0.160128,30.75,,1649753534.575,1
7.0,28.668333333333333,,,,1649753534.6683333,1
7.0,28.971666666666664,0.163971,30.75,,1649753534.7616668,1
7.0,12.219999999999999,,,,1649753534.855,1
7.0,-8.629999999999999,,,,1649753534.9483333,1
7.0,-27.110000000000003,0.163971,30.75,,1649753535.0416667,1
7.0,-55.30666666666667,,,,1649753535.135,1
7.0,-89.74666666666667,,,,1649753535.2283332,1
7.0,-112.46333333333332,0.16269,30.75,,1649753535.3216667,1
7.0,38.18333333333333,,,,1649753535.415,1
7.0,73.43166666666666,0.160128,30.75,,1649753535.5083334,1
7.0,57.61166666666668,,,,1649753535.6016667,1
7.0,66.13499999999999,,,,1649753535.695,1
7.0,58.93666666666667,0.161409,30.75,,1649753535.7883334,1
7.0,29.028333333333332,,,,1649753535.8816667,1
7.0,5.048333333333333,,,,1649753535.975,1
7.0,-15.093333333333334,0.16269,30.75,,1649753536.0683334,1
7.0,-36.85,,,,1649753536.1616666,1
7.0,-66.67,0.163971,30.75,,1649753536.255,1
7.0,-104.67166666666668,,,,1649753536.3483334,1
7.0,-85.555,,,,1649753536.4416666,1
7.0,62.038333333333334,0.163971,30.75,,1649753536.535,1
7.0,62.07833333333334,,,,1649753536.6283333,1
7.0,53.70333333333334,,,,1649753536.7216666,1
7.0,63.63499999999999,0.161409,30.75,,1649753536.815,1
7.0,50.336666666666666,,,,1649753536.9083333,1
7.0,23.69333333333333,0.161409,30.75,,1649753537.0016668,1
7.0,-2.9233333333333333,,,,1649753537.095,1
7.0,-23.918333333333333,,,,1649753537.1883333,1
7.0,-52.126666666666665,0.16269,30.75,,1649753537.2816668,1
7.0,-82.084,,,,1649753537.375,1
7.0,-91.69333333333333,,,,1649753537.4683332,1
7.0,43.475,0.163971,30.75,,1649753537.5616667,1
7.0,62.49333333333333,,,,1649753537.655,1
7.0,41.203333333333326,,,,1649753537.7483332,1
7.0,52.343333333333334,0.163971,30.75,,1649753537.8416667,1
7.0,41.971666666666664,,,,1649753537.935,1
7.0,11.293333333333335,0.16269,30.75,,1649753538.0283334,1
7.0,-9.276666666666667,,,,1649753538.1216667,1
7.0,-28.015,,,,1649753538.215,1
7.0,-55.498333333333335,0.161409,30.75,,1649753538.3083334,1
7.0,-86.19999999999999,,,,1649753538.4016666,1
7.0,-114.615,,,,1649753538.495,1
7.0,26.813333333333333,0.16269,30.75,,1649753538.5883334,1
7.0,68.14999999999999,,,,1649753538.6816666,1
7.0,56.48333333333333,0.163971,30.75,,1649753538.775,1
7.0,61.044999999999995,,,,1649753538.8683333,1
7.0,55.21666666666666,,,,1649753538.9616666,1
7.0,29.25,0.163971,30.75,,1649753539.055,1
7.0,7.179999999999999,,,,1649753539.1483333,1
7.0,-11.068333333333333,,,,1649753539.2416666,1
7.0,-31.74333333333333,0.161409,30.75,,1649753539.335,1
7.0,-61.45333333333334,,,,1649753539.4283333,1
7.0,-93.39166666666667,0.160128,30.75,,1649753539.5216668,1
7.0,-106.04833333333333,,,,1649753539.615,1
7.0,36.20166666666667,,,,1649753539.7083333,1
7.0,65.835,0.16269,30.75,,1649753539.8016667,1
7.0,53.251666666666665,,,,1649753539.895,1
7.0,59.705000000000005,,,,1649753539.9883332,1
7.0,53.71,0.163971,30.75,,1649753540.0816667,1
7.0,26.675,,,,1649753540.175,1
7.0,9.231666666666667,0.163971,30.75,,1649753540.2683334,1
7.0,-13.193333333333333,,,,1649753540.3616667,1
7.0,-35.56666666666667,,,,1649753540.455,1
7.0,-61.85999999999999,0.160128,30.75,,1649753540.5483334,1
7.0,-95.10666666666667,,,,1649753540.6416667,1
7.0,-42.56666666666667,,,,1649753540.735,1
7.0,60.27333333333334,0.161409,30.75,,1649753540.8283334,1
7.0,47.978,,,,1649753540.9216666,1
7.0,39.498333333333335,0.16269,30.75,,1649753541.015,1
7.0,50.538333333333334,,,,1649753541.1083333,1
7.0,35.185,,,,1649753541.2016666,1
7.0,7.841666666666668,0.163971,30.75,,1649753541.295,1
7.0,-13.661666666666667,,,,1649753541.3883333,1
7.0,-31.416666666666668,,,,1649753541.4816666,1
7.0,-60.90333333333333,0.163971,30.75,,1649753541.575,1
7.0,-93.915,,,,1649753541.6683333,1
7.0,-88.91333333333334,0.161409,30.75,,1649753541.7616668,1
7.0,43.708333333333336,,,,1649753541.855,1
7.0,61.10333333333333,,,,1649753541.9483333,1
7.0,51.895,0.160128,30.75,,1649753542.0416667,1
7.0,59.17666666666667,,,,1649753542.135,1
7.0,47.86000000000001,,,,1649753542.2283332,1
7.0,24.673333333333336,0.16269,30.75,,1649753542.3216667,1
7.0,5.521666666666666,,,,1649753542.415,1
7.0,-8.721666666666666,0.16269,30.75,,1649753542.5083334,1
7.0,-30.25,,,,1649753542.6016667,1
7.0,-53.27333333333333,,,,1649753542.695,1
7.0,-78.70333333333333,0.16269,30.75,,1649753542.7883334,1
7.0,-105.76666666666667,,,,1649753542.8816667,1
7.0,15.06,,,,1649753542.975,1
7.0,63.19499999999999,0.160128,30.75,,1649753543.0683334,1
7.0,47.82999999999999,,,,1649753543.1616666,1
7.0,53.35,0.160128,30.73,,1649753543.255,1
7.0,48.30666666666667,,,,1649753543.3483334,1
7.0,23.09166666666667,,,,1649753543.4416666,1
7.0,3.391666666666666,0.160128,30.73,,1649753543.535,1
7.0,-12.041666666666666,,,,1649753543.6283333,1
7.0,-29.463333333333335,,,,1649753543.7216666,1
7.0,-51.78333333333333,0.163971,30.73,,1649753543.815,1
7.0,-83.435,,,,1649753543.9083333,1
7.0,-53.10666666666666,0.163971,30.73,,1649753544.0016668,1
7.0,54.05166666666668,,,,1649753544.095,1
7.0,49.225000000000016,,,,1649753544.1883333,1
7.0,39.818333333333335,0.163971,30.73,,1649753544.2816668,1
7.0,49.658,,,,1649753544.375,1
7.0,36.25166666666667,,,,1649753544.4683332,1
7.0,10.656666666666668,0.160128,30.73,,1649753544.5616667,1
7.0,-7.5566666666666675,,,,1649753544.655,1
7.0,-23.28,,,,1649753544.7483332,1
7.0,-48.02166666666667,0.160128,30.73,,1649753544.8416667,1
7.0,-74.71833333333333,,,,1649753544.935,1
7.0,-100.545,0.16269,30.73,,1649753545.0283334,1
7.0,11.858333333333333,,,,1649753545.1216667,1
7.0,58.315,,,,1649753545.215,1
7.0,47.415,0.16269,30.71,,1649753545.3083334,1
7.0,53.19666666666668,,,,1649753545.4016666,1
7.0,49.06166666666667,,,,1649753545.495,1
7.0,25.49,0.163971,30.71,,1649753545.5883334,1
7.0,3.966666666666667,,,,1649753545.6816666,1
7.0,-14.591666666666669,0.161409,30.71,,1649753545.775,1
7.0,-33.77,,,,1649753545.8683333,1
7.0,-60.95166666666666,,,,1649753545.9616666,1
7.0,-88.71499999999999,0.160128,30.71,,1649753546.055,1
7.0,-79.085,,,,1649753546.1483333,1
7.0,43.468333333333334,,,,1649753546.2416666,1
7.0,56.01333333333333,0.165252,30.73,,1649753546.335,1
7.0,49.78333333333333,,,,1649753546.4283333,1
7.0,59.958333333333336,0.161409,30.73,,1649753546.5216668,1
7.0,46.25666666666666,,,,1649753546.615,1
7.0,19.19666666666667,,,,1649753546.7083333,1
7.0,1.156666666666667,0.163971,30.73,,1649753546.8016667,1
7.0,-15.486666666666666,,,,1649753546.895,1
7.0,-33.51,,,,1649753546.9883332,1
7.0,-58.645,0.161409,30.73,,1649753547.0816667,1
7.0,-91.62833333333333,,,,1649753547.175,1
7.0,-25.90666666666667,0.16269,30.75,,1649753547.2683334,1
7.0,61.69166666666666,,,,1649753547.3616667,1
7.0,46.11500000000001,,,,1649753547.455,1
7.0,49.73499999999999,0.163971,30.75,,1649753547.5483334,1
7.0,64.82666666666667,,,,1649753547.6416667,1
7.0,58.001666666666665,,,,1649753547.735,1
7.0,52.335,0.165252,30.75,,1649753547.8283334,1
7.0,15.344,,,,1649753547.9216666,1
7.0,-63.81666666666666,0.165252,30.75,,1649753548.015,1
7.0,-124.51166666666667,,,,1649753548.1083333,1
7.0,-144.13833333333335,,,,1649753548.2016666,1
7.0,-112.94833333333334,0.161409,30.73,,1649753548.295,1
7.0,29.38,,,,1649753548.3883333,1
7.0,56.175000000000004,,,,1649753548.4816666,1
7.0,55.303333333333335,0.161409,30.73,,1649753548.575,1
7.0,62.46333333333334,,,,1649753548.6683333,1
7.0,51.425000000000004,0.16269,30.73,,1649753548.7616668,1
7.0,25.411666666666672,,,,1649753548.855,1
7.0,6.9266666666666685,,,,1649753548.9483333,1
7.0,-13.775,0.165252,30.73,,1649753549.0416667,1
7.0,-35.805,,,,1649753549.135,1
7.0,-63.88833333333334,,,,1649753549.2283332,1
7.0,-102.97833333333334,0.165252,30.73,,1649753549.3216667,1
7.0,-31.50333333333334,,,,1649753549.415,1
7.0,77.28666666666666,0.161409,30.73,,1649753549.5083334,1
7.0,82.74166666666666,,,,1649753549.6016667,1
7.0,101.69999999999999,,,,1649753549.695,1
7.0,104.665,0.161409,30.73,,1649753549.7883334,1
7.0,15.43833333333333,,,,1649753549.8816667,1
7.0,-47.685,,,,1649753549.975,1
7.0,-52.669999999999995,0.163971,30.73,,1649753550.0683334,1
7.0,-47.71666666666667,,,,1649753550.1616666,1
7.0,-51.56333333333333,0.166533,30.71,,1649753550.255,1
7.0,-62.98166666666666,,,,1649753550.3483334,1
7.0,-94.915,,,,1649753550.4416666,1
7.0,-16.331666666666663,0.165252,30.71,,1649753550.535,1
7.0,68.11666666666666,,,,1649753550.6283333,1
7.0,51.35500000000001,,,,1649753550.7216666,1
7.0,53.06666666666666,0.16269,30.71,,1649753550.815,1
7.0,59.275,,,,1649753550.9083333,1
7.0,31.37166666666667,0.161409,30.71,,1649753551.0016668,1
7.0,9.306666666666667,,,,1649753551.095,1
7.0,-8.613333333333332,,,,1649753551.1883333,1
7.0,-25.785,0.161409,30.73,,1649753551.2816668,1
7.0,-38.483999999999995,,,,1649753551.375,1
7.0,-56.29666666666666,,,,1649753551.4683332,1
7.0,34.815,0.163971,30.73,,1649753551.5616667,1
7.0,53.001666666666665,,,,1649753551.655,1
7.0,-22.133333333333336,,,,1649753551.7483332,1
7.0,-22.62,0.165252,30.73,,1649753551.8416667,1
7.0,9.221666666666668,,,,1649753551.935,1
7.0,9.233333333333334,0.165252,30.73,,1649753552.0283334,1
7.0,0.9466666666666667,,,,1649753552.1216667,1
7.0,-10.100000000000001,,,,1649753552.215,1
7.0,-27.338333333333328,0.161409,30.71,,1649753552.3083334,1
7.0,-54.86166666666667,,,,1649753552.4016666,1
7.0,-90.58999999999999,,,,1649753552.495,1
7.0,-78.48666666666666,0.161409,30.71,,1649753552.5883334,1
7.0,52.65166666666667,,,,1649753552.6816666,1
7.0,63.30833333333334,0.163971,30.71,,1649753552.775,1
7.0,56.413333333333334,,,,1649753552.8683333,1
7.0,68.49833333333333,,,,1649753552.9616666,1
7.0,60.99666666666667,0.165252,30.71,,1649753553.055,1
7.0,37.93666666666667,,,,1649753553.1483333,1
7.0,29.511666666666667,,,,1649753553.2416666,1
7.0,28.94333333333333,0.163971,30.71,,1649753553.335,1
7.0,-24.290000000000003,,,,1649753553.4283333,1
7.0,-124.38666666666667,0.161409,30.71,,1649753553.5216668,1
7.0,-160.52333333333334,,,,1649753553.615,1
7.0,-12.165000000000001,,,,1649753553.7083333,1
7.0,40.60666666666666,0.161409,30.71,,1649753553.8016667,1
7.0,34.531666666666666,,,,1649753553.895,1
7.0,54.0,,,,1649753553.9883332,1
7.0,51.01500000000001,0.163971,30.71,,1649753554.0816667,1
7.0,22.09,,,,1649753554.175,1
7.0,-4.373333333333333,0.163971,30.71,,1649753554.2683334,1
7.0,-25.665000000000003,,,,1649753554.3616667,1
7.0,-55.964999999999996,,,,1649753554.455,1
7.0,-89.08166666666666,0.161409,30.71,,1649753554.5483334,1
7.0,-100.97666666666667,,,,1649753554.6416667,1
7.0,47.788333333333334,,,,1649753554.735,1
7.0,83.02833333333334,0.16269,30.71,,1649753554.8283334,1
7.0,74.436,,,,1649753554.9216666,1
7.0,93.71499999999999,0.161409,30.71,,1649753555.015,1
7.0,111.56333333333335,,,,1649753555.1083333,1
7.0,74.46666666666667,,,,1649753555.2016666,1
7.0,-19.511666666666667,0.16269,30.69,,1649753555.295,1
7.0,-76.00333333333333,,,,1649753555.3883333,1
7.0,-85.71166666666666,,,,1649753555.4816666,1
7.0,-94.83333333333333,0.163971,30.69,,1649753555.575,1
7.0,-114.19833333333334,,,,1649753555.6683333,1
7.0,-107.00166666666667,0.161409,30.69,,1649753555.7616668,1
7.0,49.416666666666664,,,,1649753555.855,1
7.0,75.88,,,,1649753555.9483333,1
7.0,63.37166666666667,0.161409,30.69,,1649753556.0416667,1
7.0,69.40666666666667,,,,1649753556.135,1
7.0,58.231666666666676,,,,1649753556.2283332,1
7.0,24.011666666666667,0.16269,30.71,,1649753556.3216667,1
7.0,-1.0316666666666663,,,,1649753556.415,1
7.0,-21.513333333333332,0.163971,30.71,,1649753556.5083334,1
7.0,-48.23166666666666,,,,1649753556.6016667,1
7.0,-78.63333333333333,,,,1649753556.695,1
7.0,-102.29833333333333,0.165252,30.71,,1649753556.7883334,1
7.0,34.12166666666666,,,,1649753556.8816667,1
7.0,71.28166666666667,,,,1649753556.975,1
7.0,44.833333333333336,0.165252,30.71,,1649753557.0683334,1
7.0,59.050000000000004,,,,1649753557.1616666,1
7.0,54.748333333333335,0.1755,30.69,,1649753557.255,1
7.0,21.711666666666662,,,,1649753557.3483334,1
7.0,-4.513333333333333,,,,1649753557.4416666,1
7.0,-27.936666666666667,0.161409,30.69,,1649753557.535,1
7.0,-57.81166666666667,,,,1649753557.6283333,1
7.0,-87.235,,,,1649753557.7216666,1
7.0,-126.18833333333335,0.163971,30.69,,1649753557.815,1
7.0,8.821666666666667,,,,1649753557.9083333,1
7.0,76.33166666666666,0.165252,30.69,,1649753558.0016668,1
7.0,58.201666666666675,,,,1649753558.095,1
7.0,61.44166666666667,,,,1649753558.1883333,1
7.0,60.781666666666666,0.165252,30.69,,1649753558.2816668,1
7.0,32.648,,,,1649753558.375,1
7.0,8.096666666666666,,,,1649753558.4683332,1
7.0,-12.680000000000001,0.161409,30.69,,1649753558.5616667,1
7.0,-31.545,,,,1649753558.655,1
7.0,-61.45333333333334,,,,1649753558.7483332,1
7.0,-102.69500000000001,0.161409,30.69,,1649753558.8416667,1
7.0,-84.48833333333334,,,,1649753558.935,1
7.0,59.48666666666667,0.163971,30.69,,1649753559.0283334,1
7.0,61.721666666666664,,,,1649753559.1216667,1
7.0,49.06333333333333,,,,1649753559.215,1
7.0,59.883333333333326,0.165252,30.71,,1649753559.3083334,1
7.0,46.135,,,,1649753559.4016666,1
7.0,18.651666666666667,,,,1649753559.495,1
7.0,-3.266666666666667,0.165252,30.71,,1649753559.5883334,1
7.0,-22.656666666666666,,,,1649753559.6816666,1
7.0,-51.805,0.16269,30.71,,1649753559.775,1
7.0,-80.93666666666667,,,,1649753559.8683333,1
7.0,-105.84166666666668,,,,1649753559.9616666,1
7.0,32.61666666666667,0.163971,30.71,,1649753560.055,1
7.0,70.39833333333333,,,,1649753560.1483333,1
7.0,39.69,,,,1649753560.2416666,1
7.0,52.095,0.165252,30.71,,1649753560.335,1
7.0,48.01,,,,1649753560.4283333,1
7.0,13.406666666666666,0.165252,30.71,,1649753560.5216668,1
7.0,-11.63,,,,1649753560.615,1
7.0,-32.44,,,,1649753560.7083333,1
7.0,-63.6,0.165252,30.71,,1649753560.8016667,1
7.0,-97.18333333333334,,,,1649753560.895,1
7.0,-107.06,,,,1649753560.9883332,1
7.0,52.57166666666666,0.16269,30.71,,1649753561.0816667,1
7.0,75.26833333333333,,,,1649753561.175,1
7.0,56.89166666666667,0.163971,30.69,,1649753561.2683334,1
7.0,63.791666666666664,,,,1649753561.3616667,1
7.0,52.98499999999999,,,,1649753561.455,1
7.0,20.73333333333333,0.165252,30.69,,1649753561.5483334,1
7.0,-3.7300000000000004,,,,1649753561.6416667,1
7.0,-27.10166666666667,,,,1649753561.735,1
7.0,-56.43,0.166533,30.69,,1649753561.8283334,1
7.0,-84.298,,,,1649753561.9216666,1
7.0,-129.29833333333332,0.163971,30.69,,1649753562.015,1
7.0,-33.30666666666667,,,,1649753562.1083333,1
7.0,79.015,,,,1649753562.2016666,1
7.0,62.665,0.16269,30.69,,1649753562.295,1
7.0,62.326666666666675,,,,1649753562.3883333,1
7.0,66.22333333333333,,,,1649753562.4816666,1
7.0,37.82833333333333,0.16269,30.69,,1649753562.575,1
7.0,9.840000000000002,,,,1649753562.6683333,1
7.0,-15.203333333333333,0.165252,30.69,,1649753562.7616668,1
7.0,-39.84166666666667,,,,1649753562.855,1
7.0,-70.11833333333333,,,,1649753562.9483333,1
7.0,-116.485,0.166533,30.69,,1649753563.0416667,1
7.0,-22.850000000000005,,,,1649753563.135,1
7.0,81.10833333333333,,,,1649753563.2283332,1
7.0,54.048333333333325,0.165252,30.69,,1649753563.3216667,1
7.0,52.120000000000005,,,,1649753563.415,1
7.0,58.33166666666667,0.163971,30.69,,1649753563.5083334,1
7.0,27.576666666666664,,,,1649753563.6016667,1
7.0,0.1416666666666663,,,,1649753563.695,1
7.0,-23.573333333333334,0.16269,30.69,,1649753563.7883334,1
7.0,-48.925000000000004,,,,1649753563.8816667,1
7.0,-83.02,,,,1649753563.975,1
7.0,-131.33166666666668,0.166533,30.69,,1649753564.0683334,1
7.0,-42.94,,,,1649753564.1616666,1
7.0,83.19166666666666,0.166533,30.69,,1649753564.255,1
7.0,71.50833333333334,,,,1649753564.3483334,1
7.0,72.87333333333333,,,,1649753564.4416666,1
7.0,81.82333333333334,0.166533,30.69,,1649753564.535,1
7.0,62.81166666666667,,,,1649753564.6283333,1
7.0,34.288333333333334,,,,1649753564.7216666,1
7.0,-16.863333333333333,0.163971,30.69,,1649753564.815,1
7.0,-64.01666666666667,,,,1649753564.9083333,1
7.0,-96.36500000000001,0.163971,30.69,,1649753565.0016668,1
7.0,-125.26666666666665,,,,1649753565.095,1
7.0,-116.54333333333334,,,,1649753565.1883333,1
7.0,55.416666666666664,0.166533,30.69,,1649753565.2816668,1
7.0,75.784,,,,1649753565.375,1
7.0,55.849999999999994,,,,1649753565.4683332,1
7.0,65.38,0.166533,30.69,,1649753565.5616667,1
7.0,60.00333333333334,,,,1649753565.655,1
7.0,25.48166666666667,,,,1649753565.7483332,1
7.0,-1.873333333333333,0.166533,30.69,,1649753565.8416667,1
7.0,-26.016666666666666,,,,1649753565.935,1
7.0,-59.904999999999994,0.165252,30.69,,1649753566.0283334,1
7.0,-93.86,,,,1649753566.1216667,1
7.0,-108.7966666666667,,,,1649753566.215,1
7.0,53.68333333333333,0.165252,30.67,,1649753566.3083334,1
7.0,77.58,,,,1649753566.4016666,1
7.0,52.805,,,,1649753566.495,1
7.0,64.61166666666666,0.166533,30.67,,1649753566.5883334,1
7.0,54.55666666666667,,,,1649753566.6816666,1
7.0,20.37333333333333,0.169095,30.67,,1649753566.775,1
7.0,-3.8633333333333333,,,,1649753566.8683333,1
7.0,-27.111666666666668,,,,1649753566.9616666,1
7.0,-58.505,0.165252,30.67,,1649753567.055,1
7.0,-92.625,,,,1649753567.1483333,1
7.0,-142.68833333333333,,,,1649753567.2416666,1
7.0,-7.858333333333332,0.163971,30.69,,1649753567.335,1
7.0,83.73333333333333,,,,1649753567.4283333,1
7.0,62.065,0.163971,30.69,,1649753567.5216668,1
7.0,64.50333333333333,,,,1649753567.615,1
7.0,66.215,,,,1649753567.7083333,1
7.0,34.18833333333333,0.166533,30.69,,1649753567.8016667,1
7.0,5.543333333333333,,,,1649753567.895,1
7.0,-16.700000000000003,,,,1649753567.9883332,1
7.0,-38.84166666666667,0.167814,30.69,,1649753568.0816667,1
7.0,-73.21666666666667,,,,1649753568.175,1
7.0,-114.25666666666666,0.180624,30.69,,1649753568.2683334,1
7.0,-67.42999999999999,,,,1649753568.3616667,1
7.0,79.37833333333334,,,,1649753568.455,1
7.0,68.70666666666666,0.163971,30.69,,1649753568.5483334,1
7.0,53.53333333333333,,,,1649753568.6416667,1
7.0,63.215,,,,1649753568.735,1
7.0,43.178333333333335,0.16269,30.69,,1649753568.8283334,1
7.0,12.56,,,,1649753568.9216666,1
7.0,-13.118333333333332,0.166533,30.69,,1649753569.015,1
7.0,-35.635,,,,1649753569.1083333,1
7.0,-67.38166666666667,,,,1649753569.2016666,1
7.0,-111.44000000000001,0.167814,30.67,,1649753569.295,1
7.0,-61.654999999999994,,,,1649753569.3883333,1
7.0,69.7,,,,1649753569.4816666,1
7.0,57.76,0.165252,30.67,,1649753569.575,1
7.0,49.32333333333333,,,,1649753569.6683333,1
7.0,58.54,0.163971,30.67,,1649753569.7616668,1
7.0,38.99333333333334,,,,1649753569.855,1
7.0,7.666666666666667,,,,1649753569.9483333,1
7.0,-18.56833333333333,0.165252,30.67,,1649753570.0416667,1
7.0,-40.54333333333333,,,,1649753570.135,1
7.0,-73.95833333333333,,,,1649753570.2283332,1
7.0,-117.95,0.166533,30.69,,1649753570.3216667,1
7.0,-68.35833333333335,,,,1649753570.415,1
7.0,68.905,0.166533,30.69,,1649753570.5083334,1
7.0,66.46,,,,1649753570.6016667,1
7.0,59.43,,,,1649753570.695,1
7.0,63.535,0.166533,30.69,,1649753570.7883334,1
7.0,43.76166666666668,,,,1649753570.8816667,1
7.0,16.411666666666665,,,,1649753570.975,1
7.0,-6.683333333333333,0.163971,30.69,,1649753571.0683334,1
7.0,-25.72,,,,1649753571.1616666,1
7.0,-52.10333333333333,0.165252,30.69,,1649753571.255,1
7.0,-81.29,,,,1649753571.3483334,1
7.0,-94.09666666666665,,,,1649753571.4416666,1
7.0,40.041666666666664,0.167814,30.69,,1649753571.535,1
7.0,64.35333333333334,,,,1649753571.6283333,1
7.0,41.34166666666666,,,,1649753571.7216666,1
7.0,52.445,0.171657,30.69,,1649753571.815,1
7.0,48.20166666666666,,,,1649753571.9083333,1
7.0,21.50833333333333,0.167814,30.69,,1649753572.0016668,1
7.0,0.8699999999999996,,,,1649753572.095,1
7.0,-12.798333333333332,,,,1649753572.1883333,1
7.0,-23.600000000000005,0.167814,30.69,,1649753572.2816668,1
7.0,-83.77000000000001,,,,1649753572.375,1
7.0,-53.916666666666664,,,,1649753572.4683332,1
7.0,25.021666666666665,0.16269,30.69,,1649753572.5616667,1
7.0,21.141666666666666,,,,1649753572.655,1
7.0,28.416666666666668,,,,1649753572.7483332,1
7.0,37.53666666666667,0.166533,30.69,,1649753572.8416667,1
7.0,18.924999999999997,,,,1649753572.935,1
7.0,-0.9433333333333337,0.169095,30.69,,1649753573.0283334,1
7.0,-22.365,,,,1649753573.1216667,1
7.0,-43.26666666666667,,,,1649753573.215,1
7.0,-72.21166666666666,0.166533,30.67,,1649753573.3083334,1
7.0,-113.62666666666667,,,,1649753573.4016666,1
7.0,-62.098333333333336,,,,1649753573.495,1
7.0,59.24333333333334,0.165252,30.67,,1649753573.5883334,1
7.0,58.82166666666666,,,,1649753573.6816666,1
7.0,60.125,0.16269,30.67,,1649753573.775,1
7.0,67.38333333333334,,,,1649753573.8683333,1
7.0,51.13666666666666,,,,1649753573.9616666,1
7.0,28.208333333333332,0.167814,30.67,,1649753574.055,1
7.0,14.74333333333333,,,,1649753574.1483333,1
7.0,12.395000000000001,,,,1649753574.2416666,1
7.0,-25.75666666666667,0.169095,30.67,,1649753574.335,1
7.0,-119.92999999999999,,,,1649753574.4283333,1
7.0,-125.74000000000001,0.167814,30.67,,1649753574.5216668,1
7.0,11.213333333333333,,,,1649753574.615,1
7.0,35.19833333333333,,,,1649753574.7083333,1
7.0,34.25166666666667,0.165252,30.67,,1649753574.8016667,1
7.0,51.926666666666655,,,,1649753574.895,1
7.0,37.205000000000005,,,,1649753574.9883332,1
7.0,8.033333333333333,0.165252,30.67,,1649753575.0816667,1
7.0,-16.716666666666665,,,,1649753575.175,1
7.0,-46.71666666666667,0.169095,30.69,,1649753575.2683334,1
7.0,-82.33333333333333,,,,1649753575.3616667,1
7.0,-95.47833333333334,,,,1649753575.455,1
7.0,38.625,0.166533,30.69,,1649753575.5483334,1
7.0,64.97000000000001,,,,1649753575.6416667,1
7.0,53.67666666666667,,,,1649753575.735,1
7.0,62.885,0.165252,30.69,,1649753575.8283334,1
7.0,53.676,,,,1649753575.9216666,1
7.0,23.13,0.165252,30.69,,1649753576.015,1
7.0,-3.18,,,,1649753576.1083333,1
7.0,-28.616666666666664,,,,1649753576.2016666,1
7.0,-62.65166666666667,0.166533,30.67,,1649753576.295,1
7.0,-99.46,,,,1649753576.3883333,1
7.0,-124.825,,,,1649753576.4816666,1
7.0,18.731666666666666,0.169095,30.67,,1649753576.575,1
7.0,63.788333333333334,,,,1649753576.6683333,1
7.0,60.68166666666667,0.167814,30.67,,1649753576.7616668,1
7.0,66.44333333333333,,,,1649753576.855,1
7.0,57.59833333333333,,,,1649753576.9483333,1
7.0,28.986666666666668,0.166533,30.67,,1649753577.0416667,1
7.0,5.181666666666667,,,,1649753577.135,1
7.0,-17.125,,,,1649753577.2283332,1
7.0,-44.75333333333333,0.167814,30.65,,1649753577.3216667,1
7.0,-75.96833333333333,,,,1649753577.415,1
7.0,-119.51833333333333,0.167814,30.65,,1649753577.5083334,1
7.0,-16.661666666666665,,,,1649753577.6016667,1
7.0,70.73833333333333,,,,1649753577.695,1
7.0,69.33333333333333,0.167814,30.65,,1649753577.7883334,1
7.0,82.96166666666666,,,,1649753577.8816667,1
7.0,92.60666666666667,,,,1649753577.975,1
7.0,58.16833333333333,0.167814,30.65,,1649753578.0683334,1
7.0,-11.018333333333333,,,,1649753578.1616666,1
7.0,-69.11166666666666,0.165252,30.67,,1649753578.255,1
7.0,-100.67500000000001,,,,1649753578.3483334,1
7.0,-139.18666666666664,,,,1649753578.4416666,1
7.0,-18.099999999999998,0.163971,30.67,,1649753578.535,1
7.0,57.824999999999996,,,,1649753578.6283333,1
7.0,55.58166666666667,,,,1649753578.7216666,1
7.0,67.58666666666666,0.167814,30.67,,1649753578.815,1
7.0,62.18666666666667,,,,1649753578.9083333,1
7.0,23.748333333333335,0.166533,30.67,,1649753579.0016668,1
7.0,-3.7066666666666657,,,,1649753579.095,1
7.0,-31.565,,,,1649753579.1883333,1
7.0,-68.96166666666666,0.167814,30.67,,1649753579.2816668,1
7.0,-104.90799999999999,,,,1649753579.375,1
7.0,-140.45833333333334,,,,1649753579.4683332,1
7.0,6.336666666666666,0.165252,30.67,,1649753579.5616667,1
7.0,70.90333333333332,,,,1649753579.655,1
7.0,74.47666666666667,,,,1649753579.7483332,1
7.0,82.10333333333334,0.165252,30.67,,1649753579.8416667,1
7.0,75.93333333333334,,,,1649753579.935,1
7.0,39.84,0.165252,30.67,,1649753580.0283334,1
7.0,15.245,,,,1649753580.1216667,1
7.0,-8.38,,,,1649753580.215,1
7.0,-37.221666666666664,0.169095,30.67,,1649753580.3083334,1
7.0,-75.52333333333333,,,,1649753580.4016666,1
7.0,-118.495,,,,1649753580.495,1
7.0,-99.52500000000002,0.165252,30.67,,1649753580.5883334,1
7.0,56.69666666666666,,,,1649753580.6816666,1
7.0,69.52,0.166533,30.67,,1649753580.775,1
7.0,67.06166666666667,,,,1649753580.8683333,1
7.0,79.30666666666667,,,,1649753580.9616666,1
7.0,53.645,0.167814,30.67,,1649753581.055,1
7.0,14.348333333333334,,,,1649753581.1483333,1
7.0,-19.40666666666667,,,,1649753581.2416666,1
7.0,-55.21,0.169095,30.67,,1649753581.335,1
7.0,-94.675,,,,1649753581.4283333,1
7.0,-127.42166666666667,0.169095,30.67,,1649753581.5216668,1
7.0,30.593333333333334,,,,1649753581.615,1
7.0,85.27999999999999,,,,1649753581.7083333,1
7.0,78.63999999999999,0.165252,30.67,,1649753581.8016667,1
7.0,91.93,,,,1649753581.895,1
7.0,90.09499999999998,,,,1649753581.9883332,1
7.0,60.15,0.179343,30.67,,1649753582.0816667,1
7.0,-9.518333333333333,,,,1649753582.175,1
7.0,-62.27,0.167814,30.65,,1649753582.2683334,1
7.0,-81.96333333333332,,,,1649753582.3616667,1
7.0,-108.62833333333334,,,,1649753582.455,1
7.0,-152.66333333333333,0.169095,30.65,,1649753582.5483334,1
7.0,-41.24000000000001,,,,1649753582.6416667,1
7.0,71.72666666666666,,,,1649753582.735,1
7.0,70.06833333333333,0.167814,30.65,,1649753582.8283334,1
7.0,71.21799999999999,,,,1649753582.9216666,1
7.0,72.83999999999999,0.166533,30.65,,1649753583.015,1
7.0,47.501666666666665,,,,1649753583.1083333,1
7.0,14.63,,,,1649753583.2016666,1
7.0,-10.155,0.166533,30.67,,1649753583.295,1
7.0,-33.970000000000006,,,,1649753583.3883333,1
7.0,-65.25666666666666,,,,1649753583.4816666,1
7.0,-98.7,0.167814,30.67,,1649753583.575,1
7.0,-105.58999999999999,,,,1649753583.6683333,1
7.0,46.64833333333333,0.167814,30.67,,1649753583.7616668,1
7.0,73.63000000000001,,,,1649753583.855,1
7.0,57.33666666666667,,,,1649753583.9483333,1
7.0,66.09333333333335,0.166533,30.67,,1649753584.0416667,1
7.0,48.796666666666674,,,,1649753584.135,1
7.0,13.176666666666668,,,,1649753584.2283332,1
7.0,-16.805,0.163971,30.69,,1649753584.3216667,1
7.0,-40.445,,,,1649753584.415,1
7.0,-70.48166666666667,0.167814,30.69,,1649753584.5083334,1
7.0,-111.25,,,,1649753584.6016667,1
7.0,-32.004999999999995,,,,1649753584.695,1
7.0,70.37333333333333,0.169095,30.69,,1649753584.7883334,1
7.0,54.81333333333333,,,,1649753584.8816667,1
7.0,50.93,,,,1649753584.975,1
7.0,52.47666666666667,0.165252,30.69,,1649753585.0683334,1
7.0,24.011666666666667,,,,1649753585.1616666,1
7.0,-3.2283333333333335,0.165252,30.69,,1649753585.255,1
7.0,-25.983333333333334,,,,1649753585.3483334,1
7.0,-49.116666666666674,,,,1649753585.4416666,1
7.0,-76.78333333333333,0.167814,30.69,,1649753585.535,1
7.0,-115.96166666666666,,,,1649753585.6283333,1
7.0,-33.031666666666666,,,,1649753585.7216666,1
7.0,76.63666666666666,0.169095,30.69,,1649753585.815,1
7.0,60.31166666666667,,,,1649753585.9083333,1
7.0,55.64833333333334,0.167814,30.69,,1649753586.0016668,1
7.0,59.16833333333333,,,,1649753586.095,1
7.0,36.376666666666665,,,,1649753586.1883333,1
7.0,10.471666666666666,0.166533,30.65,,1649753586.2816668,1
7.0,-7.194,,,,1649753586.375,1
7.0,-24.911666666666665,,,,1649753586.4683332,1
7.0,-46.998333333333335,0.167814,30.65,,1649753586.5616667,1
7.0,-69.155,,,,1649753586.655,1
7.0,-99.35333333333334,,,,1649753586.7483332,1
7.0,0.08666666666666838,0.170376,30.65,,1649753586.8416667,1
7.0,68.98166666666667,,,,1649753586.935,1
7.0,46.370000000000005,0.167814,30.65,,1649753587.0283334,1
7.0,46.74166666666667,,,,1649753587.1216667,1
7.0,52.35,,,,1649753587.215,1
7.0,30.81833333333334,0.165252,30.65,,1649753587.3083334,1
7.0,23.291666666666668,,,,1649753587.4016666,1
7.0,2.108333333333332,,,,1649753587.495,1
7.0,-51.593333333333334,0.165252,30.65,,1649753587.5883334,1
7.0,-73.62333333333332,,,,1649753587.6816666,1
7.0,-84.76833333333333,0.169095,30.65,,1649753587.775,1
7.0,-7.0950000000000015,,,,1649753587.8683333,1
7.0,46.415,,,,1649753587.9616666,1
7.0,27.415000000000003,0.169095,30.65,,1649753588.055,1
7.0,30.0,,,,1649753588.1483333,1
7.0,36.589999999999996,,,,1649753588.2416666,1
7.0,15.251666666666667,0.166533,30.63,,1649753588.335,1
7.0,-7.711666666666666,,,,1649753588.4283333,1
7.0,-26.959999999999997,0.166533,30.63,,1649753588.5216668,1
7.0,-48.949999999999996,,,,1649753588.615,1
7.0,-75.72,,,,1649753588.7083333,1
7.0,-65.59666666666668,0.166533,30.63,,1649753588.8016667,1
7.0,46.21333333333333,,,,1649753588.895,1
7.0,58.669999999999995,,,,1649753588.9883332,1
7.0,52.835,0.167814,30.63,,1649753589.0816667,1
7.0,71.86166666666666,,,,1649753589.175,1
7.0,57.9,0.167814,30.65,,1649753589.2683334,1
7.0,-12.780000000000001,,,,1649753589.3616667,1
7.0,-51.053333333333335,,,,1649753589.455,1
7.0,-61.85,0.165252,30.65,,1649753589.5483334,1
7.0,-72.545,,,,1649753589.6416667,1
7.0,-88.49833333333333,,,,1649753589.735,1
7.0,-39.156666666666666,0.165252,30.65,,1649753589.8283334,1
7.0,47.63,,,,1649753589.9216666,1
7.0,47.55666666666667,0.167814,30.65,,1649753590.015,1
7.0,36.30833333333333,,,,1649753590.1083333,1
7.0,41.65333333333333,,,,1649753590.2016666,1
7.0,28.814999999999998,0.170376,30.65,,1649753590.295,1
7.0,3.3183333333333334,,,,1649753590.3883333,1
7.0,-16.650000000000002,,,,1649753590.4816666,1
7.0,-38.36666666666667,0.169095,30.65,,1649753590.575,1
7.0,-65.99,,,,1649753590.6683333,1
7.0,-39.004999999999995,0.167814,30.65,,1649753590.7616668,1
7.0,64.02,,,,1649753590.855,1
7.0,76.23666666666666,,,,1649753590.9483333,1
7.0,40.025,0.166533,30.65,,1649753591.0416667,1
7.0,13.508333333333333,,,,1649753591.135,1
7.0,4.173333333333333,,,,1649753591.2283332,1
7.0,-12.525,0.169095,30.65,,1649753591.3216667,1
7.0,-28.456666666666667,,,,1649753591.415,1
7.0,-43.531666666666666,0.169095,30.65,,1649753591.5083334,1
7.0,-61.12166666666667,,,,1649753591.6016667,1
7.0,-89.75166666666667,,,,1649753591.695,1
7.0,-21.914999999999996,0.167814,30.65,,1649753591.7883334,1
7.0,57.333333333333336,,,,1649753591.8816667,1
7.0,47.029999999999994,,,,1649753591.975,1
7.0,46.44833333333333,0.165252,30.65,,1649753592.0683334,1
7.0,48.00666666666667,,,,1649753592.1616666,1
7.0,26.76666666666667,0.167814,30.67,,1649753592.255,1
7.0,5.418333333333334,,,,1649753592.3483334,1
7.0,-12.208333333333334,,,,1649753592.4416666,1
7.0,-30.623333333333335,0.169095,30.67,,1649753592.535,1
7.0,-52.961666666666666,,,,1649753592.6283333,1
7.0,-80.865,,,,1649753592.7216666,1
7.0,-50.43666666666666,0.167814,30.67,,1649753592.815,1
7.0,52.068333333333335,,,,1649753592.9083333,1
7.0,51.77166666666667,0.167814,30.67,,1649753593.0016668,1
7.0,41.40666666666667,,,,1649753593.095,1
7.0,49.23,,,,1649753593.1883333,1
7.0,36.64333333333334,0.166533,30.67,,1649753593.2816668,1
7.0,14.126000000000001,,,,1649753593.375,1
7.0,-4.783333333333334,,,,1649753593.4683332,1
7.0,-21.081666666666663,0.165252,30.67,,1649753593.5616667,1
7.0,-48.474999999999994,,,,1649753593.655,1
7.0,-75.39833333333334,,,,1649753593.7483332,1
7.0,-69.76666666666667,0.171657,30.67,,1649753593.8416667,1
7.0,39.915,,,,1649753593.935,1
7.0,52.60666666666666,0.166533,30.67,,1649753594.0283334,1
7.0,38.11666666666667,,,,1649753594.1216667,1
7.0,49.053333333333335,,,,1649753594.215,1
7.0,42.61333333333334,0.166533,30.65,,1649753594.3083334,1
7.0,20.235,,,,1649753594.4016666,1
7.0,2.301666666666667,,,,1649753594.495,1
7.0,-5.338333333333334,0.166533,30.65,,1649753594.5883334,1
7.0,-8.818333333333333,,,,1649753594.6816666,1
7.0,-55.336666666666666,0.170376,30.65,,1649753594.775,1
7.0,-93.06,,,,1649753594.8683333,1
7.0,-15.810000000000002,,,,1649753594.9616666,1
7.0,18.89666666666667,0.169095,30.65,,1649753595.055,1
7.0,21.554999999999996,,,,1649753595.1483333,1
7.0,35.833333333333336,,,,1649753595.2416666,1
7.0,35.93833333333334,0.166533,30.67,,1649753595.335,1
7.0,18.71833333333333,,,,1649753595.4283333,1
7.0,0.4799999999999998,0.166533,30.67,,1649753595.5216668,1
7.0,-17.261666666666667,,,,1649753595.615,1
7.0,-37.31666666666666,,,,1649753595.7083333,1
7.0,-61.425000000000004,0.183186,30.67,,1649753595.8016667,1
7.0,-92.14166666666667,,,,1649753595.895,1
7.0,1.8166666666666653,,,,1649753595.9883332,1
7.0,56.80500000000001,0.167814,30.67,,1649753596.0816667,1
7.0,41.27166666666667,,,,1649753596.175,1
7.0,48.22666666666667,0.166533,30.65,,1649753596.2683334,1
7.0,53.96,,,,1649753596.3616667,1
7.0,34.15833333333334,,,,1649753596.455,1
7.0,20.438333333333333,0.166533,30.65,,1649753596.5483334,1
7.0,-1.0499999999999992,,,,1649753596.6416667,1
7.0,-57.06,,,,1649753596.735,1
7.0,-116.88499999999999,0.169095,30.65,,1649753596.8283334,1
7.0,-110.322,,,,1649753596.9216666,1
7.0,18.003333333333334,0.169095,30.65,,1649753597.015,1
7.0,47.62833333333333,,,,1649753597.1083333,1
7.0,39.42666666666667,,,,1649753597.2016666,1
7.0,55.824999999999996,0.166533,30.65,,1649753597.295,1
7.0,50.125,,,,1649753597.3883333,1
7.0,19.323333333333334,,,,1649753597.4816666,1
7.0,-5.121666666666667,0.167814,30.65,,1649753597.575,1
7.0,-27.973333333333333,,,,1649753597.6683333,1
7.0,-58.55666666666667,0.167814,30.65,,1649753597.7616668,1
7.0,-96.96499999999999,,,,1649753597.855,1
7.0,-107.755,,,,1649753597.9483333,1
7.0,39.11333333333334,0.170376,30.65,,1649753598.0416667,1
7.0,73.215,,,,1649753598.135,1
7.0,58.57,,,,1649753598.2283332,1
7.0,67.97833333333334,0.170376,30.67,,1649753598.3216667,1
7.0,60.225,,,,1649753598.415,1
7.0,31.486666666666668,0.167814,30.67,,1649753598.5083334,1
7.0,10.02,,,,1649753598.6016667,1
7.0,-10.358333333333333,,,,1649753598.695,1
7.0,-32.550000000000004,0.166533,30.67,,1649753598.7883334,1
7.0,-64.14999999999999,,,,1649753598.8816667,1
7.0,-103.60166666666667,,,,1649753598.975,1
7.0,-85.02000000000001,0.166533,30.67,,1649753599.0683334,1
7.0,56.76166666666668,,,,1649753599.1616666,1
7.0,62.98999999999999,0.170376,30.65,,1649753599.255,1
7.0,50.64833333333333,,,,1649753599.3483334,1
7.0,61.788333333333334,,,,1649753599.4416666,1
7.0,48.27333333333333,0.167814,30.65,,1649753599.535,1
7.0,16.75,,,,1649753599.6283333,1
7.0,-12.313333333333333,,,,1649753599.7216666,1
7.0,-36.099999999999994,0.167814,30.65,,1649753599.815,1
7.0,-67.585,,,,1649753599.9083333,1
7.0,-108.87,0.170376,30.65,,1649753600.0016668,1
7.0,-46.474999999999994,,,,1649753600.095,1
7.0,81.05166666666666,,,,1649753600.1883333,1
7.0,76.90499999999999,0.170376,30.65,,1649753600.2816668,1
7.0,77.672,,,,1649753600.375,1
7.0,96.78166666666668,,,,1649753600.4683332,1
7.0,48.178333333333335,0.169095,30.65,,1649753600.5616667,1
7.0,-4.64,,,,1649753600.655,1
7.0,-20.385,,,,1649753600.7483332,1
7.0,-43.096666666666664,0.167814,30.65,,1649753600.8416667,1
7.0,-71.35166666666667,,,,1649753600.935,1
7.0,-101.12833333333333,0.171657,30.65,,1649753601.0283334,1
7.0,-138.90833333333333,,,,1649753601.1216667,1
7.0,-9.130000000000004,,,,1649753601.215,1
7.0,71.825,0.170376,30.65,,1649753601.3083334,1
7.0,57.11333333333332,,,,1649753601.4016666,1
7.0,61.99,,,,1649753601.495,1
7.0,64.25666666666666,0.171657,30.65,,1649753601.5883334,1
7.0,36.57,,,,1649753601.6816666,1
7.0,8.305000000000001,0.167814,30.65,,1649753601.775,1
7.0,-17.018333333333334,,,,1649753601.8683333,1
7.0,-39.24,,,,1649753601.9616666,1
7.0,-68.46333333333334,0.167814,30.65,,1649753602.055,1
7.0,-104.42666666666666,,,,1649753602.1483333,1
7.0,-80.88000000000001,,,,1649753602.2416666,1
7.0,62.31999999999999,0.171657,30.63,,1649753602.335,1
7.0,77.54333333333334,,,,1649753602.4283333,1
7.0,77.36999999999999,0.171657,30.63,,1649753602.5216668,1
7.0,115.19666666666666,,,,1649753602.615,1
7.0,104.14666666666666,,,,1649753602.7083333,1
7.0,46.48166666666666,0.169095,30.63,,1649753602.8016667,1
7.0,6.890000000000001,,,,1649753602.895,1
7.0,-73.01,,,,1649753602.9883332,1
7.0,-142.16,0.167814,30.63,,1649753603.0816667,1
7.0,-175.14833333333334,,,,1649753603.175,1
7.0,-122.66666666666667,0.171657,30.67,,1649753603.2683334,1
7.0,47.70166666666666,,,,1649753603.3616667,1
7.0,65.56,,,,1649753603.455,1
7.0,56.74333333333334,0.170376,30.67,,1649753603.5483334,1
7.0,73.20166666666667,,,,1649753603.6416667,1
7.0,52.93166666666667,,,,1649753603.735,1
7.0,15.541666666666666,0.170376,30.67,,1649753603.8283334,1
7.0,-13.732,,,,1649753603.9216666,1
7.0,-35.925,0.167814,30.67,,1649753604.015,1
7.0,-74.32666666666667,,,,1649753604.1083333,1
7.0,-118.74166666666667,,,,1649753604.2016666,1
7.0,-120.16833333333334,0.169095,30.65,,1649753604.295,1
7.0,57.865,,,,1649753604.3883333,1
7.0,88.74499999999999,,,,1649753604.4816666,1
7.0,78.81,0.169095,30.65,,1649753604.575,1
7.0,86.72500000000001,,,,1649753604.6683333,1
7.0,72.80833333333334,0.171657,30.65,,1649753604.7616668,1
7.0,37.73833333333333,,,,1649753604.855,1
7.0,9.460000000000003,,,,1649753604.9483333,1
7.0,-15.458333333333334,0.169095,30.65,,1649753605.0416667,1
7.0,-43.620000000000005,,,,1649753605.135,1
7.0,-82.93,,,,1649753605.2283332,1
7.0,-128.5633333333333,0.167814,30.65,,1649753605.3216667,1
7.0,-86.76833333333336,,,,1649753605.415,1
7.0,72.44833333333334,0.170376,30.65,,1649753605.5083334,1
7.0,70.97833333333334,,,,1649753605.6016667,1
7.0,63.53000000000001,,,,1649753605.695,1
7.0,77.38666666666667,0.171657,30.65,,1649753605.7883334,1
7.0,51.470000000000006,,,,1649753605.8816667,1
7.0,14.354999999999999,,,,1649753605.975,1
7.0,-21.89833333333333,0.171657,30.65,,1649753606.0683334,1
7.0,-55.04166666666668,,,,1649753606.1616666,1
7.0,-90.925,0.167814,30.63,,1649753606.255,1
7.0,-139.63666666666668,,,,1649753606.3483334,1
7.0,-2.3249999999999935,,,,1649753606.4416666,1
7.0,91.41166666666668,0.167814,30.63,,1649753606.535,1
7.0,67.22833333333334,,,,1649753606.6283333,1
7.0,70.45166666666667,,,,1649753606.7216666,1
7.0,70.25333333333333,0.170376,30.63,,1649753606.815,1
7.0,34.70666666666667,,,,1649753606.9083333,1
7.0,5.718333333333334,0.171657,30.63,,1649753607.0016668,1
7.0,-19.715,,,,1649753607.095,1
7.0,-47.751666666666665,,,,1649753607.1883333,1
7.0,-87.62166666666667,0.171657,30.63,,1649753607.2816668,1
7.0,-128.484,,,,1649753607.375,1
7.0,-142.93166666666667,,,,1649753607.4683332,1
7.0,42.30833333333333,0.169095,30.63,,1649753607.5616667,1
7.0,81.86166666666666,,,,1649753607.655,1
7.0,66.665,,,,1649753607.7483332,1
7.0,75.90666666666668,0.167814,30.63,,1649753607.8416667,1
7.0,66.81333333333332,,,,1649753607.935,1
7.0,32.086666666666666,0.171657,30.63,,1649753608.0283334,1
7.0,4.108333333333333,,,,1649753608.1216667,1
7.0,-21.191666666666666,,,,1649753608.215,1
7.0,-51.028333333333336,0.170376,30.63,,1649753608.3083334,1
7.0,-88.30666666666667,,,,1649753608.4016666,1
7.0,-138.13500000000002,,,,1649753608.495,1
7.0,-76.96666666666665,0.167814,30.63,,1649753608.5883334,1
7.0,81.89333333333333,,,,1649753608.6816666,1
7.0,78.11833333333334,0.167814,30.63,,1649753608.775,1
7.0,76.145,,,,1649753608.8683333,1
7.0,90.105,,,,1649753608.9616666,1
7.0,62.126666666666665,0.170376,30.63,,1649753609.055,1
7.0,22.380000000000006,,,,1649753609.1483333,1
7.0,-12.76,,,,1649753609.2416666,1
7.0,-44.39333333333334,0.171657,30.63,,1649753609.335,1
7.0,-89.07333333333332,,,,1649753609.4283333,1
7.0,-146.36833333333334,0.170376,30.63,,1649753609.5216668,1
7.0,-67.53166666666667,,,,1649753609.615,1
7.0,87.41000000000001,,,,1649753609.7083333,1
7.0,76.02333333333334,0.167814,30.63,,1649753609.8016667,1
7.0,69.58833333333334,,,,1649753609.895,1
7.0,80.81833333333333,,,,1649753609.9883332,1
7.0,51.14333333333334,0.169095,30.63,,1649753610.0816667,1
7.0,14.886666666666665,,,,1649753610.175,1
7.0,-13.886666666666665,0.171657,30.65,,1649753610.2683334,1
7.0,-42.38333333333333,,,,1649753610.3616667,1
7.0,-84.98333333333333,,,,1649753610.455,1
7.0,-128.385,0.171657,30.65,,1649753610.5483334,1
7.0,-156.77,,,,1649753610.6416667,1
7.0,42.410000000000004,,,,1649753610.735,1
7.0,100.77999999999999,0.169095,30.65,,1649753610.8283334,1
7.0,81.78399999999999,,,,1649753610.9216666,1
7.0,89.62,0.167814,30.65,,1649753611.015,1
7.0,92.46333333333332,,,,1649753611.1083333,1
7.0,60.218333333333334,,,,1649753611.2016666,1
7.0,44.294999999999995,0.170376,30.63,,1649753611.295,1
7.0,28.78333333333333,,,,1649753611.3883333,1
7.0,-24.991666666666664,,,,1649753611.4816666,1
7.0,-108.36833333333334,0.171657,30.63,,1649753611.575,1
7.0,-155.83666666666667,,,,1649753611.6683333,1
7.0,-175.98666666666668,0.171657,30.63,,1649753611.7616668,1
7.0,4.599999999999998,,,,1649753611.855,1
7.0,83.04333333333334,,,,1649753611.9483333,1
7.0,61.405,0.167814,30.63,,1649753612.0416667,1
7.0,70.78333333333335,,,,1649753612.135,1
7.0,69.13666666666667,,,,1649753612.2283332,1
7.0,30.871666666666666,0.166533,30.63,,1649753612.3216667,1
7.0,0.65,,,,1649753612.415,1
7.0,-28.491666666666664,0.170376,30.63,,1649753612.5083334,1
7.0,-64.72833333333334,,,,1649753612.6016667,1
7.0,-100.16333333333334,,,,1649753612.695,1
7.0,-113.66666666666667,0.170376,30.63,,1649753612.7883334,1
7.0,47.181666666666665,,,,1649753612.8816667,1
7.0,84.07833333333333,,,,1649753612.975,1
7.0,54.44166666666666,0.170376,30.63,,1649753613.0683334,1
7.0,63.096666666666664,,,,1649753613.1616666,1
7.0,56.24666666666667,0.167814,30.65,,1649753613.255,1
7.0,19.718333333333334,,,,1649753613.3483334,1
7.0,-7.78,,,,1649753613.4416666,1
7.0,-32.48666666666667,0.166533,30.65,,1649753613.535,1
7.0,-60.218333333333334,,,,1649753613.6283333,1
7.0,-91.57833333333332,,,,1649753613.7216666,1
7.0,-130.29166666666666,0.170376,30.65,,1649753613.815,1
7.0,7.153333333333332,,,,1649753613.9083333,1
7.0,82.82333333333334,0.171657,30.65,,1649753614.0016668,1
7.0,61.178333333333335,,,,1649753614.095,1
7.0,61.77333333333333,,,,1649753614.1883333,1
7.0,62.574999999999996,0.170376,30.65,,1649753614.2816668,1
7.0,33.874,,,,1649753614.375,1
7.0,7.558333333333334,,,,1649753614.4683332,1
7.0,-15.540000000000001,0.167814,30.65,,1649753614.5616667,1
7.0,-37.58833333333333,,,,1649753614.655,1
7.0,-68.27666666666666,,,,1649753614.7483332,1
7.0,-99.13166666666666,0.169095,30.65,,1649753614.8416667,1
7.0,-91.77166666666665,,,,1649753614.935,1
7.0,52.696666666666665,0.185748,30.65,,1649753615.0283334,1
7.0,69.72833333333334,,,,1649753615.1216667,1
7.0,51.41833333333333,,,,1649753615.215,1
7.0,60.77166666666667,0.171657,30.65,,1649753615.3083334,1
7.0,49.36166666666666,,,,1649753615.4016666,1
7.0,14.466666666666667,,,,1649753615.495,1
7.0,-12.648333333333333,0.167814,30.65,,1649753615.5883334,1
7.0,-31.7,,,,1649753615.6816666,1
7.0,-58.48666666666667,0.170376,30.65,,1649753615.775,1
7.0,-95.84500000000001,,,,1649753615.8683333,1
7.0,-44.396666666666654,,,,1649753615.9616666,1
7.0,65.35333333333334,0.169095,30.65,,1649753616.055,1
7.0,53.363333333333344,,,,1649753616.1483333,1
7.0,40.68,,,,1649753616.2416666,1
7.0,49.05833333333334,0.171657,30.65,,1649753616.335,1
7.0,27.076666666666668,,,,1649753616.4283333,1
7.0,-0.03166666666666688,0.170376,30.65,,1649753616.5216668,1
7.0,-23.30666666666667,,,,1649753616.615,1
7.0,-46.175000000000004,,,,1649753616.7083333,1
7.0,-73.01666666666667,0.169095,30.65,,1649753616.8016667,1
7.0,-112.72166666666665,,,,1649753616.895,1
7.0,-30.02166666666666,,,,1649753616.9883332,1
7.0,67.10333333333334,0.169095,30.65,,1649753617.0816667,1
7.0,56.605,,,,1649753617.175,1
7.0,58.973333333333336,0.170376,30.65,,1649753617.2683334,1
7.0,67.90833333333333,,,,1649753617.3616667,1
7.0,46.86333333333334,,,,1649753617.455,1
7.0,30.411666666666672,0.171657,30.65,,1649753617.5483334,1
7.0,-14.958333333333334,,,,1649753617.6416667,1
7.0,-63.945,,,,1649753617.735,1
7.0,-86.98666666666668,0.171657,30.65,,1649753617.8283334,1
7.0,-109.61600000000001,,,,1649753617.9216666,1
7.0,-84.5,0.169095,30.65,,1649753618.015,1
7.0,39.906666666666666,,,,1649753618.1083333,1
7.0,54.306666666666665,,,,1649753618.2016666,1
7.0,46.25333333333333,0.169095,30.65,,1649753618.295,1
7.0,55.45333333333334,,,,1649753618.3883333,1
7.0,38.77166666666667,,,,1649753618.4816666,1
7.0,11.37,0.171657,30.65,,1649753618.575,1
7.0,-13.445,,,,1649753618.6683333,1
7.0,-38.66833333333333,0.170376,30.65,,1649753618.7616668,1
7.0,-67.01333333333334,,,,1649753618.855,1
7.0,-102.67166666666667,,,,1649753618.9483333,1
7.0,-16.14166666666667,0.171657,30.65,,1649753619.0416667,1
7.0,66.27666666666666,,,,1649753619.135,1
7.0,48.07666666666666,,,,1649753619.2283332,1
7.0,50.44333333333333,0.167814,30.67,,1649753619.3216667,1
7.0,54.95166666666666,,,,1649753619.415,1
7.0,26.278333333333332,0.167814,30.67,,1649753619.5083334,1
7.0,-1.0749999999999995,,,,1649753619.6016667,1
7.0,-26.26666666666667,,,,1649753619.695,1
7.0,-56.13166666666666,0.170376,30.67,,1649753619.7883334,1
7.0,-91.49666666666667,,,,1649753619.8816667,1
7.0,-119.61833333333333,,,,1649753619.975,1
7.0,11.860000000000001,0.171657,30.67,,1649753620.0683334,1
7.0,75.52333333333333,,,,1649753620.1616666,1
7.0,60.339999999999996,0.167814,30.65,,1649753620.255,1
7.0,66.015,,,,1649753620.3483334,1
7.0,62.306666666666665,,,,1649753620.4416666,1
7.0,30.566666666666663,0.167814,30.65,,1649753620.535,1
7.0,4.781666666666666,,,,1649753620.6283333,1
7.0,-16.965,,,,1649753620.7216666,1
7.0,-47.185,0.171657,30.65,,1649753620.815,1
7.0,-77.89,,,,1649753620.9083333,1
7.0,-120.435,0.170376,30.65,,1649753621.0016668,1
7.0,-34.36000000000001,,,,1649753621.095,1
7.0,68.58166666666666,,,,1649753621.1883333,1
7.0,58.75666666666667,0.170376,30.63,,1649753621.2816668,1
7.0,57.876,,,,1649753621.375,1
7.0,66.74999999999999,,,,1649753621.4683332,1
7.0,47.285000000000004,0.167814,30.63,,1649753621.5616667,1
7.0,18.27166666666667,,,,1649753621.655,1
7.0,-7.191666666666666,,,,1649753621.7483332,1
7.0,-27.11,0.169095,30.63,,1649753621.8416667,1
7.0,-58.64000000000001,,,,1649753621.935,1
7.0,-92.10166666666667,0.171657,30.63,,1649753622.0283334,1
7.0,-80.32166666666667,,,,1649753622.1216667,1
7.0,51.72666666666666,,,,1649753622.215,1
7.0,59.90166666666667,0.171657,30.65,,1649753622.3083334,1
7.0,41.52833333333333,,,,1649753622.4016666,1
7.0,54.52166666666667,,,,1649753622.495,1
7.0,40.88166666666666,0.170376,30.65,,1649753622.5883334,1
7.0,11.696666666666665,,,,1649753622.6816666,1
7.0,-19.53,0.167814,30.65,,1649753622.775,1
7.0,-45.19333333333333,,,,1649753622.8683333,1
7.0,-75.58,,,,1649753622.9616666,1
7.0,-117.18666666666667,0.169095,30.65,,1649753623.055,1
7.0,-57.66500000000001,,,,1649753623.1483333,1
7.0,82.80666666666666,,,,1649753623.2416666,1
7.0,102.88499999999999,0.170376,30.65,,1649753623.335,1
7.0,94.84333333333335,,,,1649753623.4283333,1
7.0,59.09333333333333,0.172938,30.65,,1649753623.5216668,1
7.0,7.563333333333333,,,,1649753623.615,1
7.0,-18.866666666666667,,,,1649753623.7083333,1
7.0,-31.298333333333336,0.169095,30.65,,1649753623.8016667,1
7.0,-40.43833333333333,,,,1649753623.895,1
7.0,-62.31166666666667,,,,1649753623.9883332,1
7.0,-89.31333333333333,0.169095,30.65,,1649753624.0816667,1
7.0,-111.34166666666665,,,,1649753624.175,1
7.0,27.41333333333333,0.167814,30.65,,1649753624.2683334,1
7.0,72.97500000000001,,,,1649753624.3616667,1
7.0,47.98000000000001,,,,1649753624.455,1
7.0,60.36166666666666,0.172938,30.65,,1649753624.5483334,1
7.0,57.63833333333334,,,,1649753624.6416667,1
7.0,22.231666666666666,,,,1649753624.735,1
7.0,-11.151666666666666,0.172938,30.65,,1649753624.8283334,1
7.0,-35.512,,,,1649753624.9216666,1
7.0,-67.84833333333334,0.170376,30.65,,1649753625.015,1
7.0,-111.15333333333332,,,,1649753625.1083333,1
7.0,-62.75333333333334,,,,1649753625.2016666,1
7.0,88.575,0.169095,30.65,,1649753625.295,1
7.0,97.80166666666666,,,,1649753625.3883333,1
7.0,107.625,,,,1649753625.4816666,1
7.0,80.89833333333333,0.170376,30.65,,1649753625.575,1
7.0,3.888333333333334,,,,1649753625.6683333,1
7.0,-29.711666666666662,0.171657,30.65,,1649753625.7616668,1
7.0,-36.29,,,,1649753625.855,1
7.0,-49.165,,,,1649753625.9483333,1
7.0,-73.37833333333333,0.171657,30.65,,1649753626.0416667,1
7.0,-102.41833333333334,,,,1649753626.135,1
7.0,-143.885,,,,1649753626.2283332,1
7.0,-3.393333333333333,0.170376,30.65,,1649753626.3216667,1
7.0,84.12333333333333,,,,1649753626.415,1
7.0,65.17166666666667,0.169095,30.65,,1649753626.5083334,1
7.0,72.55833333333332,,,,1649753626.6016667,1
7.0,78.65333333333332,,,,1649753626.695,1
7.0,47.01,0.170376,30.65,,1649753626.7883334,1
7.0,17.43166666666667,,,,1649753626.8816667,1
7.0,-10.421666666666667,,,,1649753626.975,1
7.0,-36.38166666666667,0.171657,30.65,,1649753627.0683334,1
7.0,-63.48499999999999,,,,1649753627.1616666,1
7.0,-105.23500000000001,0.172938,30.65,,1649753627.255,1
7.0,18.458333333333332,,,,1649753627.3483334,1
7.0,98.35166666666667,,,,1649753627.4416666,1
7.0,27.55666666666666,0.169095,30.65,,1649753627.535,1
7.0,31.44666666666667,,,,1649753627.6283333,1
7.0,42.251666666666665,,,,1649753627.7216666,1
7.0,10.74,0.167814,30.65,,1649753627.815,1
7.0,-20.073333333333334,,,,1649753627.9083333,1
7.0,-44.785,0.167814,30.65,,1649753628.0016668,1
7.0,-76.26333333333334,,,,1649753628.095,1
7.0,-117.03333333333335,,,,1649753628.1883333,1
7.0,-115.77666666666666,0.171657,30.65,,1649753628.2816668,1
7.0,55.60799999999999,,,,1649753628.375,1
7.0,89.32666666666665,,,,1649753628.4683332,1
7.0,65.84,0.170376,30.65,,1649753628.5616667,1
7.0,74.92999999999999,,,,1649753628.655,1
7.0,68.73833333333333,,,,1649753628.7483332,1
7.0,29.615,0.169095,30.65,,1649753628.8416667,1
7.0,-2.940000000000001,,,,1649753628.935,1
7.0,-30.688333333333333,0.169095,30.65,,1649753629.0283334,1
7.0,-66.11666666666667,,,,1649753629.1216667,1
7.0,-103.57499999999999,,,,1649753629.215,1
7.0,-136.65333333333334,0.170376,30.65,,1649753629.3083334,1
7.0,33.55833333333333,,,,1649753629.4016666,1
7.0,90.12666666666667,,,,1649753629.495,1
7.0,66.86666666666666,0.171657,30.65,,1649753629.5883334,1
7.0,74.07666666666667,,,,1649753629.6816666,1
7.0,69.855,0.171657,30.65,,1649753629.775,1
7.0,28.941666666666674,,,,1649753629.8683333,1
7.0,0.6966666666666672,,,,1649753629.9616666,1
7.0,-23.174999999999997,0.169095,30.65,,1649753630.055,1
7.0,-55.01833333333334,,,,1649753630.1483333,1
7.0,-89.82333333333334,,,,1649753630.2416666,1
7.0,-127.90666666666665,0.167814,30.65,,1649753630.335,1
7.0,18.013333333333335,,,,1649753630.4283333,1
7.0,82.565,0.171657,30.65,,1649753630.5216668,1
7.0,55.30166666666668,,,,1649753630.615,1
7.0,62.54833333333334,,,,1649753630.7083333,1
7.0,61.318333333333335,0.171657,30.65,,1649753630.8016667,1
7.0,18.49,,,,1649753630.895,1
7.0,-15.594999999999999,,,,1649753630.9883332,1
7.0,-42.56666666666666,0.171657,30.65,,1649753631.0816667,1
7.0,-78.94666666666667,,,,1649753631.175,1
7.0,-121.815,0.169095,30.67,,1649753631.2683334,1
7.0,-115.49666666666667,,,,1649753631.3616667,1
7.0,67.86,,,,1649753631.455,1
7.0,85.5,0.167814,30.67,,1649753631.5483334,1
7.0,72.27333333333333,,,,1649753631.6416667,1
7.0,81.30499999999999,,,,1649753631.735,1
7.0,64.40333333333332,0.172938,30.67,,1649753631.8283334,1
7.0,24.1,,,,1649753631.9216666,1
7.0,-3.7449999999999997,0.172938,30.67,,1649753632.015,1
7.0,-32.04333333333333,,,,1649753632.1083333,1
7.0,-65.05666666666667,,,,1649753632.2016666,1
7.0,-100.79833333333333,0.172938,30.67,,1649753632.295,1
7.0,-152.23000000000002,,,,1649753632.3883333,1
7.0,-11.346666666666673,,,,1649753632.4816666,1
7.0,100.53166666666668,0.170376,30.67,,1649753632.575,1
7.0,75.675,,,,1649753632.6683333,1
7.0,76.765,0.169095,30.67,,1649753632.7616668,1
7.0,81.97666666666667,,,,1649753632.855,1
7.0,42.32333333333333,,,,1649753632.9483333,1
7.0,3.7633333333333336,0.169095,30.67,,1649753633.0416667,1
7.0,-29.426666666666666,,,,1649753633.135,1
7.0,-67.01,,,,1649753633.2283332,1
7.0,-106.42333333333333,0.171657,30.67,,1649753633.3216667,1
7.0,-109.28666666666668,,,,1649753633.415,1
7.0,60.36333333333334,0.169095,30.67,,1649753633.5083334,1
7.0,75.35833333333332,,,,1649753633.6016667,1
7.0,46.695,,,,1649753633.695,1
7.0,62.23,0.169095,30.67,,1649753633.7883334,1
7.0,49.93166666666667,,,,1649753633.8816667,1
7.0,9.888333333333334,,,,1649753633.975,1
7.0,-27.00666666666667,0.171657,30.67,,1649753634.0683334,1
7.0,-56.055,,,,1649753634.1616666,1
7.0,-92.61000000000001,0.172938,30.65,,1649753634.255,1
7.0,-143.835,,,,1649753634.3483334,1
7.0,-67.61,,,,1649753634.4416666,1
7.0,91.01166666666666,0.172938,30.65,,1649753634.535,1
7.0,80.64666666666666,,,,1649753634.6283333,1
7.0,75.30166666666666,,,,1649753634.7216666,1
7.0,87.13666666666666,0.169095,30.65,,1649753634.815,1
7.0,66.74666666666667,,,,1649753634.9083333,1
7.0,41.17333333333334,0.171657,30.65,,1649753635.0016668,1
7.0,17.43833333333333,,,,1649753635.095,1
7.0,-46.6,,,,1649753635.1883333,1
7.0,-101.83,0.172938,30.69,,1649753635.2816668,1
7.0,-128.724,,,,1649753635.375,1
7.0,-130.73333333333332,,,,1649753635.4683332,1
7.0,30.221666666666664,0.171657,30.69,,1649753635.5616667,1
7.0,62.23833333333332,,,,1649753635.655,1
7.0,50.445,,,,1649753635.7483332,1
7.0,68.99499999999999,0.171657,30.69,,1649753635.8416667,1
7.0,56.49,,,,1649753635.935,1
7.0,15.503333333333332,0.169095,30.69,,1649753636.0283334,1
7.0,-19.973333333333333,,,,1649753636.1216667,1
7.0,-49.526666666666664,,,,1649753636.215,1
7.0,-85.00666666666666,0.169095,30.65,,1649753636.3083334,1
7.0,-132.44333333333333,,,,1649753636.4016666,1
7.0,-20.726666666666663,,,,1649753636.495,1
7.0,84.85499999999999,0.171657,30.65,,1649753636.5883334,1
7.0,60.21833333333334,,,,1649753636.6816666,1
7.0,59.905,0.171657,30.65,,1649753636.775,1
7.0,67.18333333333332,,,,1649753636.8683333,1
7.0,36.03333333333333,,,,1649753636.9616666,1
7.0,5.556666666666666,0.169095,30.65,,1649753637.055,1
7.0,-23.45,,,,1649753637.1483333,1
7.0,-55.64333333333334,,,,1649753637.2416666,1
7.0,-92.31,0.167814,30.65,,1649753637.335,1
7.0,-143.17499999999998,,,,1649753637.4283333,1
7.0,-35.453333333333326,0.172938,30.65,,1649753637.5216668,1
7.0,84.23,,,,1649753637.615,1
7.0,68.41166666666665,,,,1649753637.7083333,1
7.0,68.59666666666668,0.174219,30.65,,1649753637.8016667,1
7.0,73.74166666666666,,,,1649753637.895,1
7.0,45.50666666666666,,,,1649753637.9883332,1
7.0,13.89,0.172938,30.65,,1649753638.0816667,1
7.0,-10.851666666666667,,,,1649753638.175,1
7.0,-34.550000000000004,0.170376,30.67,,1649753638.2683334,1
7.0,-65.49666666666667,,,,1649753638.3616667,1
7.0,-96.80666666666667,,,,1649753638.455,1
7.0,-113.19999999999999,0.169095,30.67,,1649753638.5483334,1
7.0,45.48499999999999,,,,1649753638.6416667,1
7.0,89.71,,,,1649753638.735,1
7.0,72.17,0.171657,30.67,,1649753638.8283334,1
7.0,97.364,,,,1649753638.9216666,1
7.0,99.57833333333333,0.174219,30.67,,1649753639.015,1
7.0,14.864999999999997,,,,1649753639.1083333,1
7.0,-42.555,,,,1649753639.2016666,1
7.0,-62.78,0.170376,30.65,,1649753639.295,1
7.0,-81.44999999999999,,,,1649753639.3883333,1
7.0,-101.40833333333335,,,,1649753639.4816666,1
7.0,-113.33999999999999,0.170376,30.65,,1649753639.575,1
7.0,29.61,,,,1649753639.6683333,1
7.0,73.40166666666666,0.172938,30.65,,1649753639.7616668,1
7.0,50.98666666666667,,,,1649753639.855,1
7.0,59.31333333333333,,,,1649753639.9483333,1
7.0,53.55166666666667,0.174219,30.65,,1649753640.0416667,1
7.0,21.10166666666667,,,,1649753640.135,1
7.0,-5.261666666666667,,,,1649753640.2283332,1
7.0,-29.100000000000005,0.174219,30.69,,1649753640.3216667,1
7.0,-54.199999999999996,,,,1649753640.415,1
7.0,-82.59,0.171657,30.69,,1649753640.5083334,1
7.0,-119.01333333333334,,,,1649753640.6016667,1
7.0,-4.621666666666667,,,,1649753640.695,1
7.0,73.99,0.169095,30.69,,1649753640.7883334,1
7.0,54.78333333333334,,,,1649753640.8816667,1
7.0,57.099999999999994,,,,1649753640.975,1
7.0,64.28,0.172938,30.69,,1649753641.0683334,1
7.0,34.98,,,,1649753641.1616666,1
7.0,9.741666666666665,0.172938,30.69,,1649753641.255,1
7.0,-8.42,,,,1649753641.3483334,1
7.0,-27.695000000000004,,,,1649753641.4416666,1
7.0,-51.11166666666667,0.172938,30.69,,1649753641.535,1
7.0,-76.34499999999998,,,,1649753641.6283333,1
7.0,-100.88166666666665,,,,1649753641.7216666,1
7.0,16.135,0.170376,30.69,,1649753641.815,1
7.0,67.12166666666667,,,,1649753641.9083333,1
7.0,41.84166666666666,0.171657,30.69,,1649753642.0016668,1
7.0,47.026666666666664,,,,1649753642.095,1
7.0,48.13833333333334,,,,1649753642.1883333,1
7.0,15.575000000000003,0.172938,30.69,,1649753642.2816668,1
7.0,-11.360000000000001,,,,1649753642.375,1
7.0,-34.19333333333333,,,,1649753642.4683332,1
7.0,-59.72666666666667,0.174219,30.69,,1649753642.5616667,1
7.0,-98.35166666666665,,,,1649753642.655,1
7.0,-42.27666666666667,,,,1649753642.7483332,1
7.0,69.60666666666667,0.171657,30.69,,1649753642.8416667,1
7.0,63.443333333333335,,,,1649753642.935,1
7.0,59.88833333333333,0.170376,30.69,,1649753643.0283334,1
7.0,78.59500000000001,,,,1649753643.1216667,1
7.0,73.19166666666666,,,,1649753643.215,1
7.0,32.31,0.174219,30.69,,1649753643.3083334,1
7.0,-45.53166666666666,,,,1649753643.4016666,1
7.0,-88.96,,,,1649753643.495,1
7.0,-109.88499999999999,0.174219,30.69,,1649753643.5883334,1
7.0,-133.97,,,,1649753643.6816666,1
7.0,-42.07666666666666,0.172938,30.69,,1649753643.775,1
7.0,55.54666666666666,,,,1649753643.8683333,1
7.0,46.725,,,,1649753643.9616666,1
7.0,50.72666666666667,0.171657,30.69,,1649753644.055,1
7.0,56.076666666666675,,,,1649753644.1483333,1
7.0,30.60166666666667,,,,1649753644.2416666,1
7.0,4.29,0.170376,30.71,,1649753644.335,1
7.0,-22.48,,,,1649753644.4283333,1
7.0,-46.84166666666666,0.172938,30.71,,1649753644.5216668,1
7.0,-75.605,,,,1649753644.615,1
7.0,-117.30333333333334,,,,1649753644.7083333,1
7.0,-24.895,0.174219,30.71,,1649753644.8016667,1
7.0,75.69833333333334,,,,1649753644.895,1
7.0,63.12166666666667,,,,1649753644.9883332,1
7.0,64.39999999999999,0.174219,30.71,,1649753645.0816667,1
7.0,69.88166666666666,,,,1649753645.175,1
7.0,38.995,0.185748,30.69,,1649753645.2683334,1
7.0,6.946666666666666,,,,1649753645.3616667,1
7.0,-22.263333333333335,,,,1649753645.455,1
7.0,-53.915,0.170376,30.69,,1649753645.5483334,1
7.0,-92.75333333333333,,,,1649753645.6416667,1
7.0,-96.51333333333332,,,,1649753645.735,1
7.0,42.43666666666666,0.172938,30.69,,1649753645.8283334,1
7.0,63.09000000000001,,,,1649753645.9216666,1
7.0,38.09,0.174219,30.69,,1649753646.015,1
7.0,47.98166666666666,,,,1649753646.1083333,1
7.0,45.02333333333333,,,,1649753646.2016666,1
7.0,11.040000000000001,0.174219,30.69,,1649753646.295,1
7.0,-20.92,,,,1649753646.3883333,1
7.0,-47.294999999999995,,,,1649753646.4816666,1
7.0,-82.86666666666666,0.171657,30.69,,1649753646.575,1
7.0,-131.00666666666666,,,,1649753646.6683333,1
7.0,-61.673333333333346,0.171657,30.69,,1649753646.7616668,1
7.0,92.84500000000001,,,,1649753646.855,1
7.0,101.49666666666667,,,,1649753646.9483333,1
7.0,117.36000000000001,0.174219,30.69,,1649753647.0416667,1
7.0,123.66666666666667,,,,1649753647.135,1
7.0,53.11333333333332,,,,1649753647.2283332,1
7.0,5.006666666666667,0.174219,30.69,,1649753647.3216667,1
7.0,-23.595,,,,1649753647.415,1
7.0,-50.94166666666667,0.174219,30.69,,1649753647.5083334,1
7.0,-87.65499999999999,,,,1649753647.6016667,1
7.0,-127.74333333333333,,,,1649753647.695,1
7.0,-119.46166666666669,0.170376,30.69,,1649753647.7883334,1
7.0,44.69833333333333,,,,1649753647.8816667,1
7.0,67.49666666666667,,,,1649753647.975,1
7.0,54.794999999999995,0.170376,30.69,,1649753648.0683334,1
7.0,70.27499999999999,,,,1649753648.1616666,1
7.0,51.32833333333334,0.174219,30.69,,1649753648.255,1
7.0,7.953333333333333,,,,1649753648.3483334,1
7.0,-27.37333333333333,,,,1649753648.4416666,1
7.0,-67.87666666666667,0.1755,30.69,,1649753648.535,1
7.0,-112.75,,,,1649753648.6283333,1
7.0,-130.94,,,,1649753648.7216666,1
7.0,38.71333333333333,0.171657,30.69,,1649753648.815,1
7.0,84.02999999999999,,,,1649753648.9083333,1
7.0,77.5,0.171657,30.69,,1649753649.0016668,1
7.0,100.58666666666666,,,,1649753649.095,1
7.0,90.06499999999998,,,,1649753649.1883333,1
7.0,39.81166666666667,0.172938,30.69,,1649753649.2816668,1
7.0,0.7,,,,1649753649.375,1
7.0,-32.223333333333336,,,,1649753649.4683332,1
7.0,-78.74166666666666,0.174219,30.69,,1649753649.5616667,1
7.0,-127.13166666666666,,,,1649753649.655,1
7.0,-177.96,,,,1649753649.7483332,1
7.0,-0.7283333333333294,0.172938,30.69,,1649753649.8416667,1
7.0,88.33166666666666,,,,1649753649.935,1
7.0,91.7,0.170376,30.69,,1649753650.0283334,1
7.0,101.93,,,,1649753650.1216667,1
7.0,98.04166666666667,,,,1649753650.215,1
7.0,57.91,0.171657,30.71,,1649753650.3083334,1
7.0,20.385,,,,1649753650.4016666,1
7.0,-12.101666666666667,,,,1649753650.495,1
7.0,-43.565,0.172938,30.71,,1649753650.5883334,1
7.0,-89.22666666666667,,,,1649753650.6816666,1
7.0,-134.675,0.1755,30.71,,1649753650.775,1
7.0,-140.88166666666666,,,,1649753650.8683333,1
7.0,50.15833333333333,,,,1649753650.9616666,1
7.0,93.08833333333332,0.174219,30.71,,1649753651.055,1
7.0,94.96666666666665,,,,1649753651.1483333,1
7.0,117.13166666666666,,,,1649753651.2416666,1
7.0,117.60333333333331,0.171657,30.69,,1649753651.335,1
7.0,28.415000000000003,,,,1649753651.4283333,1
7.0,-40.71,0.171657,30.69,,1649753651.5216668,1
7.0,-57.89333333333334,,,,1649753651.615,1
7.0,-86.25333333333333,,,,1649753651.7083333,1
7.0,-122.23833333333334,0.172938,30.69,,1649753651.8016667,1
7.0,-160.26000000000002,,,,1649753651.895,1
7.0,6.639999999999998,,,,1649753651.9883332,1
7.0,83.26833333333333,0.172938,30.69,,1649753652.0816667,1
7.0,62.166666666666664,,,,1649753652.175,1
7.0,74.34166666666667,0.174219,30.71,,1649753652.2683334,1
7.0,73.24666666666667,,,,1649753652.3616667,1
7.0,32.075,,,,1649753652.455,1
7.0,-0.35166666666666657,0.171657,30.71,,1649753652.5483334,1
7.0,-31.05666666666667,,,,1649753652.6416667,1
7.0,-67.09166666666667,,,,1649753652.735,1
7.0,-108.895,0.171657,30.71,,1649753652.8283334,1
7.0,-164.464,,,,1649753652.9216666,1
7.0,-105.37666666666667,0.172938,30.71,,1649753653.015,1
7.0,82.14666666666666,,,,1649753653.1083333,1
7.0,93.25166666666667,,,,1649753653.2016666,1
7.0,90.14666666666666,0.174219,30.71,,1649753653.295,1
7.0,102.21333333333332,,,,1649753653.3883333,1
7.0,79.18166666666666,,,,1649753653.4816666,1
7.0,39.703333333333326,0.171657,30.71,,1649753653.575,1
7.0,9.774999999999999,,,,1649753653.6683333,1
7.0,-12.674999999999997,0.170376,30.71,,1649753653.7616668,1
7.0,-41.21666666666666,,,,1649753653.855,1
7.0,-75.62500000000001,,,,1649753653.9483333,1
7.0,-108.82166666666667,0.172938,30.71,,1649753654.0416667,1
7.0,-136.055,,,,1649753654.135,1
7.0,36.665,,,,1649753654.2283332,1
7.0,92.08333333333333,0.174219,30.69,,1649753654.3216667,1
7.0,58.82833333333334,,,,1649753654.415,1
7.0,69.55,0.172938,30.69,,1649753654.5083334,1
7.0,67.23666666666666,,,,1649753654.6016667,1
7.0,25.689999999999998,,,,1649753654.695,1
7.0,-6.228333333333334,0.170376,30.69,,1649753654.7883334,1
7.0,-27.62,,,,1649753654.8816667,1
7.0,-54.51166666666666,,,,1649753654.975,1
7.0,-78.33666666666666,0.170376,30.69,,1649753655.0683334,1
7.0,-43.66833333333333,,,,1649753655.1616666,1
7.0,110.58666666666666,0.1755,30.71,,1649753655.255,1
7.0,54.60166666666667,,,,1649753655.3483334,1
7.0,-11.253333333333332,,,,1649753655.4416666,1
7.0,3.2399999999999998,0.1755,30.71,,1649753655.535,1
7.0,7.833333333333333,,,,1649753655.6283333,1
7.0,-10.335,,,,1649753655.7216666,1
7.0,-20.176666666666666,0.174219,30.71,,1649753655.815,1
7.0,-35.186666666666675,,,,1649753655.9083333,1
7.0,-60.40833333333333,0.171657,30.71,,1649753656.0016668,1
7.0,-90.72666666666667,,,,1649753656.095,1
7.0,-127.36333333333333,,,,1649753656.1883333,1
7.0,7.788333333333331,0.171657,30.71,,1649753656.2816668,1
7.0,86.866,,,,1649753656.375,1
7.0,63.13666666666666,,,,1649753656.4683332,1
7.0,62.093333333333334,0.174219,30.71,,1649753656.5616667,1
7.0,66.77333333333333,,,,1649753656.655,1
7.0,36.04833333333334,,,,1649753656.7483332,1
7.0,3.793333333333333,0.1755,30.71,,1649753656.8416667,1
7.0,-20.56833333333333,,,,1649753656.935,1
7.0,-43.321666666666665,0.174219,30.71,,1649753657.0283334,1
7.0,-73.54333333333334,,,,1649753657.1216667,1
7.0,-115.07666666666665,,,,1649753657.215,1
7.0,-47.69,0.170376,30.73,,1649753657.3083334,1
7.0,80.30333333333333,,,,1649753657.4016666,1
7.0,65.15666666666667,,,,1649753657.495,1
7.0,55.669999999999995,0.170376,30.73,,1649753657.5883334,1
7.0,65.41833333333334,,,,1649753657.6816666,1
7.0,36.465,0.172938,30.73,,1649753657.775,1
7.0,3.2950000000000004,,,,1649753657.8683333,1
7.0,-23.331666666666667,,,,1649753657.9616666,1
7.0,-49.95333333333334,0.172938,30.73,,1649753658.055,1
7.0,-83.99166666666666,,,,1649753658.1483333,1
7.0,-131.1783333333333,,,,1649753658.2416666,1
7.0,-40.99166666666667,0.174219,30.71,,1649753658.335,1
7.0,72.98833333333333,,,,1649753658.4283333,1
7.0,60.60333333333333,0.171657,30.71,,1649753658.5216668,1
7.0,64.21333333333334,,,,1649753658.615,1
7.0,76.71000000000001,,,,1649753658.7083333,1
7.0,52.971666666666664,0.171657,30.71,,1649753658.8016667,1
7.0,25.55,,,,1649753658.895,1
7.0,7.105,,,,1649753658.9883332,1
7.0,-0.13666666666666658,0.18831,30.71,,1649753659.0816667,1
