ID,empatica_bvp,empatica_eda,empatica_temp,samsung_bvp,time,CL
3.0,1.3685714285714285,,,,1644481153.4201922,1
3.0,4.452857142857143,,33.45,,1644481153.5278847,1
3.0,8.584285714285715,,,,1644481153.635577,1
3.0,14.265714285714283,,,,1644481153.7432692,1
3.0,27.392857142857142,,33.45,,1644481153.8509614,1
3.0,53.85428571428571,,,,1644481153.958654,1
3.0,95.75714285714287,,33.45,,1644481154.0663462,1
3.0,151.84714285714284,,,,1644481154.1740384,1
3.0,208.3342857142857,,33.45,,1644481154.2817307,1
3.0,-6.776666666666666,,,,1644481154.3894231,1
3.0,-355.7785714285714,,,,1644481154.4971154,1
3.0,-526.2,,33.45,,1644481154.6048076,1
3.0,-269.34714285714284,,,,1644481154.7125,1
3.0,59.99571428571429,,33.45,,1644481154.8201923,1
3.0,175.58714285714285,,,,1644481154.9278846,1
3.0,155.43,,33.45,,1644481155.0355768,1
3.0,103.50142857142855,,,,1644481155.1432693,1
3.0,57.86714285714286,,33.47,,1644481155.2509615,1
3.0,28.22666666666667,,,,1644481155.3586538,1
3.0,11.007142857142858,,,,1644481155.4663463,1
3.0,2.85,,33.47,,1644481155.5740385,1
3.0,0.5414285714285715,,,,1644481155.6817307,1
3.0,0.19,,33.47,,1644481155.789423,1
3.0,0.3842857142857143,,,,1644481155.8971155,1
3.0,0.7414285714285713,,33.47,,1644481156.0048077,1
3.0,1.3414285714285714,,,,1644481156.1125,1
3.0,2.6100000000000003,,,,1644481156.2201922,1
3.0,4.875,,33.47,,1644481156.3278847,1
3.0,8.715714285714286,,,,1644481156.435577,1
3.0,14.95142857142857,,33.47,,1644481156.5432692,1
3.0,22.87714285714286,,,,1644481156.6509616,1
3.0,18.330000000000002,,33.47,,1644481156.7586539,1
3.0,-7.671428571428572,,,,1644481156.8663461,1
3.0,-18.217142857142857,,,,1644481156.9740384,1
3.0,-8.93,,33.47,,1644481157.0817308,1
3.0,3.29,,,,1644481157.189423,1
3.0,16.895714285714284,,33.45,,1644481157.2971153,1
3.0,33.669999999999995,,,,1644481157.4048078,1
3.0,50.79428571428571,,33.45,,1644481157.5125,1
3.0,65.94714285714285,,,,1644481157.6201923,1
3.0,56.18142857142857,,,,1644481157.7278845,1
3.0,-55.42857142857143,,33.45,,1644481157.835577,1
3.0,-232.6557142857143,,,,1644481157.9432693,1
3.0,-162.94571428571427,,33.45,,1644481158.0509615,1
3.0,-40.97571428571429,,,,1644481158.1586537,1
3.0,10.835714285714287,,33.45,,1644481158.2663462,1
3.0,24.11833333333333,,,,1644481158.3740385,1
3.0,23.651428571428575,,,,1644481158.4817307,1
3.0,17.482857142857142,,33.45,,1644481158.5894232,1
3.0,-5.457142857142857,,,,1644481158.6971154,1
3.0,16.774285714285714,,33.45,,1644481158.8048077,1
3.0,23.81571428571429,,,,1644481158.9125,1
3.0,30.389999999999997,,33.45,,1644481159.0201924,1
3.0,28.677142857142858,,,,1644481159.1278846,1
3.0,14.19,,,,1644481159.2355769,1
3.0,3.4883333333333333,,33.43,,1644481159.3432693,1
3.0,-10.122857142857143,,,,1644481159.4509616,1
3.0,-25.835714285714285,,33.43,,1644481159.5586538,1
3.0,-9.215714285714286,,,,1644481159.666346,1
3.0,12.63142857142857,,33.43,,1644481159.7740386,1
3.0,20.14428571428572,,,,1644481159.8817308,1
3.0,21.451428571428572,,,,1644481159.989423,1
3.0,14.97,,33.43,,1644481160.0971153,1
3.0,4.001428571428571,,,,1644481160.2048078,1
3.0,-6.513333333333333,,33.45,,1644481160.3125,1
3.0,-23.49142857142857,,,,1644481160.4201922,1
3.0,-25.900000000000002,,33.45,,1644481160.5278847,1
3.0,0.18714285714285722,,,,1644481160.635577,1
3.0,19.782857142857143,,,,1644481160.7432692,1
3.0,23.762857142857143,,33.45,,1644481160.8509614,1
3.0,24.298571428571428,,,,1644481160.958654,1
3.0,13.320000000000002,,33.45,,1644481161.0663462,1
3.0,5.181428571428571,,,,1644481161.1740384,1
3.0,-5.925714285714286,,33.43,,1644481161.2817307,1
3.0,-21.044999999999998,,,,1644481161.3894231,1
3.0,-37.14857142857142,,,,1644481161.4971154,1
3.0,-17.922857142857143,,33.43,,1644481161.6048076,1
3.0,12.457142857142856,,,,1644481161.7125,1
3.0,24.467142857142857,,33.43,,1644481161.8201923,1
3.0,29.482857142857142,,,,1644481161.9278846,1
3.0,33.88428571428572,,33.43,,1644481162.0355768,1
3.0,31.55,,,,1644481162.1432693,1
3.0,2.182857142857143,,33.43,,1644481162.2509615,1
3.0,-19.355,,,,1644481162.3586538,1
3.0,-45.19285714285714,,,,1644481162.4663463,1
3.0,-25.588571428571424,,33.43,,1644481162.5740385,1
3.0,12.917142857142858,,,,1644481162.6817307,1
3.0,15.732857142857142,,33.43,,1644481162.789423,1
3.0,9.151428571428571,,,,1644481162.8971155,1
3.0,-4.384285714285714,,33.43,,1644481163.0048077,1
3.0,-13.825714285714284,,,,1644481163.1125,1
3.0,-25.97,,,,1644481163.2201922,1
3.0,-31.41333333333333,,33.41,,1644481163.3278847,1
3.0,5.68,,,,1644481163.435577,1
3.0,34.87571428571429,,33.41,,1644481163.5432692,1
3.0,36.03285714285714,,,,1644481163.6509616,1
3.0,45.80571428571428,,33.41,,1644481163.7586539,1
3.0,13.448571428571428,,,,1644481163.8663461,1
3.0,-11.951428571428574,,,,1644481163.9740384,1
3.0,-27.917142857142856,,33.41,,1644481164.0817308,1
3.0,-50.68571428571429,,,,1644481164.189423,1
3.0,-25.91,,33.41,,1644481164.2971153,1
3.0,13.378333333333332,,,,1644481164.4048078,1
3.0,25.732857142857142,,33.41,,1644481164.5125,1
3.0,38.35142857142858,,,,1644481164.6201923,1
3.0,15.37428571428571,,,,1644481164.7278845,1
3.0,9.354285714285714,,33.41,,1644481164.835577,1
3.0,13.445714285714287,,,,1644481164.9432693,1
3.0,7.378571428571428,,33.41,,1644481165.0509615,1
3.0,-19.77,,,,1644481165.1586537,1
3.0,-49.27428571428571,,33.41,,1644481165.2663462,1
3.0,-23.101666666666663,,,,1644481165.3740385,1
3.0,2.9899999999999998,,,,1644481165.4817307,1
3.0,18.67571428571429,,33.41,,1644481165.5894232,1
3.0,23.86714285714286,,,,1644481165.6971154,1
3.0,20.25142857142857,,33.41,,1644481165.8048077,1
3.0,14.514285714285714,,,,1644481165.9125,1
3.0,9.024285714285714,,33.41,,1644481166.0201924,1
3.0,-2.531428571428571,,,,1644481166.1278846,1
3.0,-19.304285714285715,,,,1644481166.2355769,1
3.0,-35.67333333333333,,33.41,,1644481166.3432693,1
3.0,-17.16857142857143,,,,1644481166.4509616,1
3.0,2.8600000000000003,,33.41,,1644481166.5586538,1
3.0,9.819999999999999,,,,1644481166.666346,1
3.0,8.325714285714286,,33.41,,1644481166.7740386,1
3.0,-0.17714285714285719,,,,1644481166.8817308,1
3.0,-0.2928571428571428,,,,1644481166.989423,1
3.0,-8.318571428571428,,33.41,,1644481167.0971153,1
3.0,-22.7,,,,1644481167.2048078,1
3.0,-25.48333333333333,,33.39,,1644481167.3125,1
3.0,3.442857142857143,,,,1644481167.4201922,1
3.0,17.27,,33.39,,1644481167.5278847,1
3.0,17.91,,,,1644481167.635577,1
3.0,16.08857142857143,,,,1644481167.7432692,1
3.0,8.178571428571429,,33.39,,1644481167.8509614,1
3.0,-2.25,,,,1644481167.958654,1
3.0,-12.374285714285715,,33.39,,1644481168.0663462,1
3.0,-33.29714285714286,,,,1644481168.1740384,1
3.0,-27.16714285714286,,33.39,,1644481168.2817307,1
3.0,1.0016666666666665,,,,1644481168.3894231,1
3.0,20.571428571428573,,,,1644481168.4971154,1
3.0,32.89714285714286,,33.39,,1644481168.6048076,1
3.0,30.628571428571426,,,,1644481168.7125,1
3.0,19.478571428571428,,33.39,,1644481168.8201923,1
3.0,13.828571428571427,,,,1644481168.9278846,1
3.0,10.248571428571427,,33.39,,1644481169.0355768,1
3.0,8.422857142857143,,,,1644481169.1432693,1
3.0,5.477142857142858,,33.41,,1644481169.2509615,1
3.0,55.01333333333333,,,,1644481169.3586538,1
3.0,-4.6899999999999995,,,,1644481169.4663463,1
3.0,-100.10857142857142,,33.41,,1644481169.5740385,1
3.0,-45.61714285714286,,,,1644481169.6817307,1
3.0,-17.617142857142856,,33.41,,1644481169.789423,1
3.0,-15.782857142857145,,,,1644481169.8971155,1
3.0,1.3442857142857143,,33.41,,1644481170.0048077,1
3.0,-8.515714285714285,,,,1644481170.1125,1
3.0,-30.194285714285712,,,,1644481170.2201922,1
3.0,-27.23166666666667,,33.39,,1644481170.3278847,1
3.0,4.7299999999999995,,,,1644481170.435577,1
3.0,34.07285714285714,,33.39,,1644481170.5432692,1
3.0,38.057142857142864,,,,1644481170.6509616,1
3.0,23.41571428571429,,33.39,,1644481170.7586539,1
3.0,14.845714285714283,,,,1644481170.8663461,1
3.0,-0.7642857142857145,,,,1644481170.9740384,1
3.0,-16.287142857142857,,33.39,,1644481171.0817308,1
3.0,-23.995714285714286,,,,1644481171.189423,1
3.0,-32.31428571428571,,33.39,,1644481171.2971153,1
3.0,-15.821666666666667,,,,1644481171.4048078,1
3.0,6.140000000000001,,33.39,,1644481171.5125,1
3.0,18.857142857142858,,,,1644481171.6201923,1
3.0,26.96,,,,1644481171.7278845,1
3.0,22.148571428571433,,33.39,,1644481171.835577,1
3.0,16.892857142857146,,,,1644481171.9432693,1
3.0,10.884285714285713,,33.39,,1644481172.0509615,1
3.0,-2.724285714285714,,,,1644481172.1586537,1
3.0,-18.364285714285717,,33.39,,1644481172.2663462,1
3.0,-3.17,,,,1644481172.3740385,1
3.0,5.804285714285714,,,,1644481172.4817307,1
3.0,16.59,,33.39,,1644481172.5894232,1
3.0,18.142857142857142,,,,1644481172.6971154,1
3.0,12.465714285714284,,33.39,,1644481172.8048077,1
3.0,4.051428571428572,,,,1644481172.9125,1
3.0,-3.778571428571428,,33.39,,1644481173.0201924,1
3.0,-12.948571428571427,,,,1644481173.1278846,1
3.0,-29.722857142857144,,,,1644481173.2355769,1
3.0,-36.67333333333333,,33.39,,1644481173.3432693,1
3.0,-10.36,,,,1644481173.4509616,1
3.0,4.202857142857143,,33.39,,1644481173.5586538,1
3.0,7.865714285714286,,,,1644481173.666346,1
3.0,15.297142857142859,,33.39,,1644481173.7740386,1
3.0,0.5328571428571428,,,,1644481173.8817308,1
3.0,-3.8000000000000003,,,,1644481173.989423,1
3.0,-8.662857142857144,,33.39,,1644481174.0971153,1
3.0,-19.654285714285713,,,,1644481174.2048078,1
3.0,-21.756666666666664,,33.37,,1644481174.3125,1
3.0,3.532857142857143,,,,1644481174.4201922,1
3.0,25.291428571428572,,33.37,,1644481174.5278847,1
3.0,22.775714285714287,,,,1644481174.635577,1
3.0,14.752857142857144,,,,1644481174.7432692,1
3.0,2.1514285714285717,,33.37,,1644481174.8509614,1
3.0,-10.297142857142857,,,,1644481174.958654,1
3.0,-14.575714285714286,,33.37,,1644481175.0663462,1
3.0,-28.26571428571429,,,,1644481175.1740384,1
3.0,-26.292857142857144,,33.34,,1644481175.2817307,1
3.0,-5.323333333333333,,,,1644481175.3894231,1
3.0,12.267142857142858,,,,1644481175.4971154,1
3.0,19.65285714285714,,33.34,,1644481175.6048076,1
3.0,18.947142857142858,,,,1644481175.7125,1
3.0,19.23428571428571,,33.34,,1644481175.8201923,1
3.0,16.368571428571425,,,,1644481175.9278846,1
3.0,0.009999999999999913,,33.34,,1644481176.0355768,1
3.0,0.7085714285714285,,,,1644481176.1432693,1
3.0,-6.155714285714285,,33.37,,1644481176.2509615,1
3.0,-25.006666666666664,,,,1644481176.3586538,1
3.0,-15.697142857142856,,,,1644481176.4663463,1
3.0,1.7642857142857145,,33.37,,1644481176.5740385,1
3.0,7.757142857142857,,,,1644481176.6817307,1
3.0,7.905714285714287,,33.37,,1644481176.789423,1
3.0,10.895714285714288,,,,1644481176.8971155,1
3.0,-1.6199999999999997,,33.37,,1644481177.0048077,1
3.0,-16.19142857142857,,,,1644481177.1125,1
3.0,-27.587142857142855,,,,1644481177.2201922,1
3.0,-10.299999999999999,,33.34,,1644481177.3278847,1
3.0,9.925714285714287,,,,1644481177.435577,1
3.0,22.145714285714288,,33.34,,1644481177.5432692,1
3.0,25.347142857142853,,,,1644481177.6509616,1
3.0,21.054285714285715,,33.34,,1644481177.7586539,1
3.0,8.23857142857143,,,,1644481177.8663461,1
3.0,-6.03,,,,1644481177.9740384,1
3.0,-21.641428571428573,,33.34,,1644481178.0817308,1
3.0,-32.502857142857145,,,,1644481178.189423,1
3.0,-32.94571428571429,,33.34,,1644481178.2971153,1
3.0,16.118333333333336,,,,1644481178.4048078,1
3.0,21.197142857142858,,33.34,,1644481178.5125,1
3.0,30.86285714285714,,,,1644481178.6201923,1
3.0,53.305714285714295,,,,1644481178.7278845,1
3.0,57.67428571428571,,33.34,,1644481178.835577,1
3.0,84.73428571428572,,,,1644481178.9432693,1
3.0,83.70285714285714,,33.34,,1644481179.0509615,1
3.0,-76.91571428571429,,,,1644481179.1586537,1
3.0,-167.63285714285715,,33.37,,1644481179.2663462,1
3.0,-112.10833333333335,,,,1644481179.3740385,1
3.0,-53.19714285714286,,,,1644481179.4817307,1
3.0,-8.47,,33.37,,1644481179.5894232,1
3.0,12.667142857142858,,,,1644481179.6971154,1
3.0,21.615714285714287,,33.37,,1644481179.8048077,1
3.0,20.3,,,,1644481179.9125,1
3.0,25.074285714285715,,33.37,,1644481180.0201924,1
3.0,11.605714285714287,,,,1644481180.1278846,1
3.0,-14.822857142857144,,,,1644481180.2355769,1
3.0,-23.22,,33.34,,1644481180.3432693,1
3.0,-16.662857142857142,,,,1644481180.4509616,1
3.0,-2.4271428571428566,,33.34,,1644481180.5586538,1
3.0,12.374285714285715,,,,1644481180.666346,1
3.0,15.058571428571428,,33.34,,1644481180.7740386,1
3.0,16.58857142857143,,,,1644481180.8817308,1
3.0,13.64857142857143,,,,1644481180.989423,1
3.0,6.067142857142857,,33.34,,1644481181.0971153,1
3.0,-8.610000000000001,,,,1644481181.2048078,1
3.0,27.159999999999997,,33.34,,1644481181.3125,1
3.0,70.37285714285714,,,,1644481181.4201922,1
3.0,77.60285714285715,,33.34,,1644481181.5278847,1
3.0,-18.228571428571428,,,,1644481181.635577,1
3.0,-118.17857142857142,,,,1644481181.7432692,1
3.0,-80.58285714285714,,33.34,,1644481181.8509614,1
3.0,-57.25000000000001,,,,1644481181.958654,1
3.0,-33.51285714285715,,33.34,,1644481182.0663462,1
3.0,-21.785714285714285,,,,1644481182.1740384,1
3.0,7.33,,33.33,,1644481182.2817307,1
3.0,31.808333333333334,,,,1644481182.3894231,1
3.0,33.23285714285715,,,,1644481182.4971154,1
3.0,32.74,,33.33,,1644481182.6048076,1
3.0,26.880000000000003,,,,1644481182.7125,1
3.0,11.85,,33.33,,1644481182.8201923,1
3.0,-5.928571428571429,,,,1644481182.9278846,1
3.0,-18.67142857142857,,33.33,,1644481183.0355768,1
3.0,-41.52285714285714,,,,1644481183.1432693,1
3.0,-30.18142857142857,,33.34,,1644481183.2509615,1
3.0,2.353333333333333,,,,1644481183.3586538,1
3.0,19.47142857142857,,,,1644481183.4663463,1
3.0,24.474285714285713,,33.34,,1644481183.5740385,1
3.0,19.66428571428571,,,,1644481183.6817307,1
3.0,15.728571428571428,,33.34,,1644481183.789423,1
3.0,13.359999999999998,,,,1644481183.8971155,1
3.0,-1.412857142857143,,33.34,,1644481184.0048077,1
3.0,-20.810000000000002,,,,1644481184.1125,1
3.0,-24.27285714285714,,,,1644481184.2201922,1
3.0,-9.498333333333333,,33.33,,1644481184.3278847,1
3.0,8.664285714285715,,,,1644481184.435577,1
3.0,16.48,,33.33,,1644481184.5432692,1
3.0,17.03285714285714,,,,1644481184.6509616,1
3.0,15.91,,33.33,,1644481184.7586539,1
3.0,9.97,,,,1644481184.8663461,1
3.0,-10.014285714285714,,,,1644481184.9740384,1
3.0,-27.292857142857144,,33.33,,1644481185.0817308,1
3.0,-30.854285714285712,,,,1644481185.189423,1
3.0,-0.4314285714285719,,33.33,,1644481185.2971153,1
3.0,19.69,,,,1644481185.4048078,1
3.0,24.32,,33.33,,1644481185.5125,1
3.0,27.560000000000002,,,,1644481185.6201923,1
3.0,18.02857142857143,,,,1644481185.7278845,1
3.0,5.564285714285714,,33.33,,1644481185.835577,1
3.0,-4.458571428571429,,,,1644481185.9432693,1
3.0,-24.42285714285714,,33.33,,1644481186.0509615,1
3.0,-39.222857142857144,,,,1644481186.1586537,1
3.0,-16.18,,33.33,,1644481186.2663462,1
3.0,10.74,,,,1644481186.3740385,1
3.0,20.53571428571429,,,,1644481186.4817307,1
3.0,24.890000000000004,,33.33,,1644481186.5894232,1
3.0,22.170000000000005,,,,1644481186.6971154,1
3.0,14.04142857142857,,33.33,,1644481186.8048077,1
3.0,4.2700000000000005,,,,1644481186.9125,1
3.0,-11.601428571428572,,33.33,,1644481187.0201924,1
3.0,-26.754285714285718,,,,1644481187.1278846,1
3.0,-50.15714285714286,,,,1644481187.2355769,1
3.0,-23.12833333333333,,33.33,,1644481187.3432693,1
3.0,8.081428571428571,,,,1644481187.4509616,1
3.0,29.018571428571427,,33.33,,1644481187.5586538,1
3.0,29.208571428571428,,,,1644481187.666346,1
3.0,21.990000000000002,,33.33,,1644481187.7740386,1
3.0,12.448571428571427,,,,1644481187.8817308,1
3.0,2.524285714285714,,,,1644481187.989423,1
3.0,-3.7185714285714284,,33.33,,1644481188.0971153,1
3.0,-25.49142857142857,,,,1644481188.2048078,1
3.0,-40.455000000000005,,33.34,,1644481188.3125,1
3.0,-10.122857142857143,,,,1644481188.4201922,1
3.0,13.511428571428572,,33.34,,1644481188.5278847,1
3.0,23.990000000000002,,,,1644481188.635577,1
3.0,19.555714285714288,,,,1644481188.7432692,1
3.0,11.42,,33.34,,1644481188.8509614,1
3.0,1.837142857142857,,,,1644481188.958654,1
3.0,-6.054285714285713,,33.34,,1644481189.0663462,1
3.0,-24.59285714285715,,,,1644481189.1740384,1
3.0,-28.192857142857147,,33.31,,1644481189.2817307,1
3.0,15.160000000000002,,,,1644481189.3894231,1
3.0,56.631428571428565,,,,1644481189.4971154,1
3.0,56.18999999999999,,33.31,,1644481189.6048076,1
3.0,-18.735714285714288,,,,1644481189.7125,1
3.0,-27.060000000000002,,33.31,,1644481189.8201923,1
3.0,-24.345714285714287,,,,1644481189.9278846,1
3.0,-19.294285714285714,,33.31,,1644481190.0355768,1
3.0,-18.301428571428573,,,,1644481190.1432693,1
3.0,-37.19857142857143,,33.33,,1644481190.2509615,1
3.0,-30.578333333333333,,,,1644481190.3586538,1
3.0,4.922857142857143,,,,1644481190.4663463,1
3.0,15.247142857142856,,33.33,,1644481190.5740385,1
3.0,19.76142857142857,,,,1644481190.6817307,1
3.0,20.542857142857144,,33.33,,1644481190.789423,1
3.0,15.674285714285714,,,,1644481190.8971155,1
3.0,10.11857142857143,,33.33,,1644481191.0048077,1
3.0,5.0600000000000005,,,,1644481191.1125,1
3.0,-9.375714285714286,,,,1644481191.2201922,1
3.0,-25.558333333333334,,33.33,,1644481191.3278847,1
3.0,-39.22714285714286,,,,1644481191.435577,1
3.0,-8.680000000000001,,33.33,,1644481191.5432692,1
3.0,10.195714285714287,,,,1644481191.6509616,1
3.0,24.524285714285718,,33.33,,1644481191.7586539,1
3.0,30.580000000000002,,,,1644481191.8663461,1
3.0,21.884285714285713,,,,1644481191.9740384,1
3.0,10.222857142857142,,33.33,,1644481192.0817308,1
3.0,2.35,,,,1644481192.189423,1
3.0,-8.034285714285714,,33.33,,1644481192.2971153,1
3.0,-23.788333333333338,,,,1644481192.4048078,1
3.0,-36.68142857142857,,33.33,,1644481192.5125,1
3.0,-12.370000000000001,,,,1644481192.6201923,1
3.0,3.9257142857142853,,,,1644481192.7278845,1
3.0,12.39,,33.33,,1644481192.835577,1
3.0,16.802857142857142,,,,1644481192.9432693,1
3.0,17.547142857142855,,33.33,,1644481193.0509615,1
3.0,13.959999999999999,,,,1644481193.1586537,1
3.0,3.125714285714286,,33.34,,1644481193.2663462,1
3.0,-7.715,,,,1644481193.3740385,1
3.0,-30.172857142857143,,,,1644481193.4817307,1
3.0,-33.42857142857143,,33.34,,1644481193.5894232,1
3.0,5.2871428571428565,,,,1644481193.6971154,1
3.0,31.958571428571425,,33.34,,1644481193.8048077,1
3.0,56.82857142857142,,,,1644481193.9125,1
3.0,96.32142857142857,,33.34,,1644481194.0201924,1
3.0,74.60857142857142,,,,1644481194.1278846,1
3.0,-47.989999999999995,,,,1644481194.2355769,1
3.0,-52.715,,33.33,,1644481194.3432693,1
3.0,-45.925714285714285,,,,1644481194.4509616,1
3.0,-44.441428571428574,,33.33,,1644481194.5586538,1
3.0,-61.39857142857143,,,,1644481194.666346,1
3.0,-31.419999999999998,,33.33,,1644481194.7740386,1
3.0,-6.0200000000000005,,,,1644481194.8817308,1
3.0,7.035714285714286,,,,1644481194.989423,1
3.0,14.238571428571428,,33.33,,1644481195.0971153,1
3.0,7.8985714285714295,,,,1644481195.2048078,1
3.0,2.0316666666666667,,33.31,,1644481195.3125,1
3.0,-4.1257142857142854,,,,1644481195.4201922,1
3.0,-13.754285714285714,,33.31,,1644481195.5278847,1
3.0,-29.295714285714286,,,,1644481195.635577,1
3.0,-17.349999999999998,,,,1644481195.7432692,1
3.0,54.33714285714285,,33.31,,1644481195.8509614,1
3.0,91.15142857142857,,,,1644481195.958654,1
3.0,89.72714285714285,,33.31,,1644481196.0663462,1
3.0,-32.5,,,,1644481196.1740384,1
3.0,-65.01571428571428,,33.31,,1644481196.2817307,1
3.0,-55.24,,,,1644481196.3894231,1
3.0,-24.845714285714283,,,,1644481196.4971154,1
3.0,-17.518571428571427,,33.31,,1644481196.6048076,1
3.0,-39.53857142857142,,,,1644481196.7125,1
3.0,-19.93857142857143,,33.31,,1644481196.8201923,1
3.0,7.487142857142857,,,,1644481196.9278846,1
3.0,21.937142857142856,,33.31,,1644481197.0355768,1
3.0,23.592857142857145,,,,1644481197.1432693,1
3.0,24.624285714285715,,33.31,,1644481197.2509615,1
3.0,21.31833333333333,,,,1644481197.3586538,1
3.0,4.035714285714286,,,,1644481197.4663463,1
3.0,-13.429999999999998,,33.31,,1644481197.5740385,1
3.0,-34.22714285714285,,,,1644481197.6817307,1
3.0,-36.36,,33.31,,1644481197.789423,1
3.0,3.441428571428571,,,,1644481197.8971155,1
3.0,19.967142857142854,,33.31,,1644481198.0048077,1
3.0,30.91857142857143,,,,1644481198.1125,1
3.0,38.15714285714286,,,,1644481198.2201922,1
3.0,31.226666666666663,,33.29,,1644481198.3278847,1
3.0,23.677142857142854,,,,1644481198.435577,1
3.0,14.825714285714286,,33.29,,1644481198.5432692,1
3.0,-16.59714285714286,,,,1644481198.6509616,1
3.0,-49.22428571428571,,33.29,,1644481198.7586539,1
3.0,-22.56714285714286,,,,1644481198.8663461,1
3.0,2.5271428571428567,,,,1644481198.9740384,1
3.0,19.77285714285714,,33.29,,1644481199.0817308,1
3.0,23.018571428571427,,,,1644481199.189423,1
3.0,11.597142857142858,,33.29,,1644481199.2971153,1
3.0,-0.5033333333333333,,,,1644481199.4048078,1
3.0,-17.212857142857143,,33.29,,1644481199.5125,1
3.0,-37.002857142857145,,,,1644481199.6201923,1
3.0,-44.21142857142858,,,,1644481199.7278845,1
3.0,-5.655714285714285,,33.29,,1644481199.835577,1
3.0,20.125714285714285,,,,1644481199.9432693,1
3.0,27.101428571428567,,33.29,,1644481200.0509615,1
3.0,30.58857142857143,,,,1644481200.1586537,1
3.0,27.435714285714287,,33.31,,1644481200.2663462,1
3.0,15.885,,,,1644481200.3740385,1
3.0,4.135714285714286,,,,1644481200.4817307,1
3.0,-22.517142857142858,,33.31,,1644481200.5894232,1
3.0,-61.92285714285715,,,,1644481200.6971154,1
3.0,-36.75142857142857,,33.31,,1644481200.8048077,1
3.0,-3.780000000000001,,,,1644481200.9125,1
3.0,14.845714285714283,,33.31,,1644481201.0201924,1
3.0,27.680000000000003,,,,1644481201.1278846,1
3.0,32.042857142857144,,,,1644481201.2355769,1
3.0,25.209999999999997,,33.29,,1644481201.3432693,1
3.0,9.47285714285714,,,,1644481201.4509616,1
3.0,-6.05,,33.29,,1644481201.5586538,1
3.0,-25.498571428571427,,,,1644481201.666346,1
3.0,-45.792857142857144,,33.29,,1644481201.7740386,1
3.0,-8.220000000000002,,,,1644481201.8817308,1
3.0,21.684285714285714,,,,1644481201.989423,1
3.0,33.55714285714286,,33.29,,1644481202.0971153,1
3.0,30.458571428571425,,,,1644481202.2048078,1
3.0,25.564999999999998,,33.31,,1644481202.3125,1
3.0,16.924285714285713,,,,1644481202.4201922,1
3.0,2.2771428571428567,,33.31,,1644481202.5278847,1
3.0,-17.254285714285714,,,,1644481202.635577,1
3.0,-33.74285714285715,,,,1644481202.7432692,1
3.0,-28.872857142857146,,33.31,,1644481202.8509614,1
3.0,5.105714285714285,,,,1644481202.958654,1
3.0,23.36285714285714,,33.31,,1644481203.0663462,1
3.0,27.267142857142858,,,,1644481203.1740384,1
3.0,22.882857142857144,,33.29,,1644481203.2817307,1
3.0,12.160000000000002,,,,1644481203.3894231,1
3.0,0.3442857142857142,,,,1644481203.4971154,1
3.0,-18.407142857142862,,33.29,,1644481203.6048076,1
3.0,-45.56000000000001,,,,1644481203.7125,1
3.0,-29.408571428571427,,33.29,,1644481203.8201923,1
3.0,2.6942857142857144,,,,1644481203.9278846,1
3.0,16.51857142857143,,33.29,,1644481204.0355768,1
3.0,20.134285714285713,,,,1644481204.1432693,1
3.0,19.404285714285713,,33.29,,1644481204.2509615,1
3.0,15.156666666666666,,,,1644481204.3586538,1
3.0,4.761428571428572,,,,1644481204.4663463,1
3.0,-15.207142857142857,,33.29,,1644481204.5740385,1
3.0,-41.494285714285716,,,,1644481204.6817307,1
3.0,-26.955714285714286,,33.29,,1644481204.789423,1
3.0,6.155714285714285,,,,1644481204.8971155,1
3.0,22.825714285714287,,33.29,,1644481205.0048077,1
3.0,26.93571428571429,,,,1644481205.1125,1
3.0,23.94857142857143,,,,1644481205.2201922,1
3.0,17.893333333333334,,33.29,,1644481205.3278847,1
3.0,8.888571428571428,,,,1644481205.435577,1
3.0,-2.565714285714286,,33.29,,1644481205.5432692,1
3.0,-22.110000000000003,,,,1644481205.6509616,1
3.0,-48.675714285714285,,33.29,,1644481205.7586539,1
3.0,-17.854285714285716,,,,1644481205.8663461,1
3.0,7.214285714285714,,,,1644481205.9740384,1
3.0,19.34714285714286,,33.29,,1644481206.0817308,1
3.0,20.297142857142855,,,,1644481206.189423,1
3.0,10.055714285714286,,33.31,,1644481206.2971153,1
3.0,2.2416666666666667,,,,1644481206.4048078,1
3.0,-3.54,,33.31,,1644481206.5125,1
3.0,-12.991428571428571,,,,1644481206.6201923,1
3.0,-28.425714285714285,,,,1644481206.7278845,1
3.0,-23.541428571428572,,33.31,,1644481206.835577,1
3.0,3.3957142857142864,,,,1644481206.9432693,1
3.0,13.907142857142857,,33.31,,1644481207.0509615,1
3.0,17.478571428571428,,,,1644481207.1586537,1
3.0,13.227142857142857,,33.29,,1644481207.2663462,1
3.0,5.176666666666667,,,,1644481207.3740385,1
3.0,1.7214285714285713,,,,1644481207.4817307,1
3.0,-12.194285714285712,,33.29,,1644481207.5894232,1
3.0,-34.01857142857143,,,,1644481207.6971154,1
3.0,-20.09,,33.29,,1644481207.8048077,1
3.0,-0.7728571428571431,,,,1644481207.9125,1
3.0,6.53,,33.29,,1644481208.0201924,1
3.0,13.744285714285715,,,,1644481208.1278846,1
3.0,13.632857142857143,,,,1644481208.2355769,1
3.0,8.638333333333334,,33.29,,1644481208.3432693,1
3.0,1.842857142857143,,,,1644481208.4509616,1
3.0,12.299999999999999,,33.29,,1644481208.5586538,1
3.0,15.88,,,,1644481208.666346,1
3.0,-11.217142857142859,,33.29,,1644481208.7740386,1
3.0,-21.814285714285717,,,,1644481208.8817308,1
3.0,-21.827142857142857,,,,1644481208.989423,1
3.0,-9.540000000000001,,33.29,,1644481209.0971153,1
3.0,-0.6799999999999999,,,,1644481209.2048078,1
3.0,1.0166666666666666,,33.31,,1644481209.3125,1
3.0,-5.974285714285714,,,,1644481209.4201922,1
3.0,-22.02285714285714,,33.31,,1644481209.5278847,1
3.0,-32.59571428571429,,,,1644481209.635577,1
3.0,0.8114285714285714,,,,1644481209.7432692,1
3.0,17.21,,33.31,,1644481209.8509614,1
3.0,31.641428571428573,,,,1644481209.958654,1
3.0,40.02,,33.31,,1644481210.0663462,1
3.0,44.28857142857142,,,,1644481210.1740384,1
3.0,58.24714285714286,,33.29,,1644481210.2817307,1
3.0,34.07,,,,1644481210.3894231,1
3.0,-63.798571428571435,,,,1644481210.4971154,1
3.0,-83.71857142857142,,33.29,,1644481210.6048076,1
3.0,-52.85,,,,1644481210.7125,1
3.0,-4.12,,33.29,,1644481210.8201923,1
3.0,27.995714285714282,,,,1644481210.9278846,1
3.0,38.800000000000004,,33.29,,1644481211.0355768,1
3.0,20.310000000000002,,,,1644481211.1432693,1
3.0,7.299999999999999,,33.29,,1644481211.2509615,1
3.0,-15.113333333333335,,,,1644481211.3586538,1
3.0,-35.07857142857143,,,,1644481211.4663463,1
3.0,-29.055714285714288,,33.29,,1644481211.5740385,1
3.0,-14.577142857142858,,,,1644481211.6817307,1
3.0,-5.569999999999999,,33.29,,1644481211.789423,1
3.0,9.061428571428573,,,,1644481211.8971155,1
3.0,9.077142857142857,,33.29,,1644481212.0048077,1
3.0,-0.82,,,,1644481212.1125,1
3.0,-1.8357142857142859,,,,1644481212.2201922,1
3.0,-5.306666666666667,,33.29,,1644481212.3278847,1
3.0,-23.835714285714285,,,,1644481212.435577,1
3.0,-29.048571428571424,,33.29,,1644481212.5432692,1
3.0,6.07,,,,1644481212.6509616,1
3.0,32.41571428571429,,33.29,,1644481212.7586539,1
3.0,33.112857142857145,,,,1644481212.8663461,1
3.0,33.17857142857143,,,,1644481212.9740384,1
3.0,12.205714285714285,,33.29,,1644481213.0817308,1
3.0,-11.257142857142856,,,,1644481213.189423,1
3.0,-17.29,,33.27,,1644481213.2971153,1
3.0,-28.785,,,,1644481213.4048078,1
3.0,-41.43,,33.27,,1644481213.5125,1
3.0,-9.871428571428572,,,,1644481213.6201923,1
3.0,13.971428571428572,,,,1644481213.7278845,1
3.0,25.51142857142857,,33.27,,1644481213.835577,1
3.0,30.965714285714284,,,,1644481213.9432693,1
3.0,20.92571428571429,,33.27,,1644481214.0509615,1
3.0,12.394285714285713,,,,1644481214.1586537,1
3.0,-5.241428571428572,,33.27,,1644481214.2663462,1
3.0,-22.811666666666667,,,,1644481214.3740385,1
3.0,-42.89714285714286,,,,1644481214.4817307,1
3.0,-15.601428571428569,,33.27,,1644481214.5894232,1
3.0,22.965714285714284,,,,1644481214.6971154,1
3.0,15.315714285714288,,33.27,,1644481214.8048077,1
3.0,14.832857142857145,,,,1644481214.9125,1
3.0,10.58285714285714,,33.27,,1644481215.0201924,1
3.0,11.514285714285714,,,,1644481215.1278846,1
3.0,16.875714285714288,,,,1644481215.2355769,1
3.0,-0.765,,33.29,,1644481215.3432693,1
3.0,29.212857142857143,,,,1644481215.4509616,1
3.0,71.70714285714286,,33.29,,1644481215.5586538,1
3.0,19.91714285714286,,,,1644481215.666346,1
3.0,-58.06428571428571,,33.29,,1644481215.7740386,1
3.0,-54.26142857142857,,,,1644481215.8817308,1
3.0,-60.88,,,,1644481215.989423,1
3.0,-27.368571428571425,,33.29,,1644481216.0971153,1
3.0,-15.858571428571427,,,,1644481216.2048078,1
3.0,-18.596666666666668,,33.29,,1644481216.3125,1
3.0,-2.7571428571428576,,,,1644481216.4201922,1
3.0,16.747142857142858,,33.29,,1644481216.5278847,1
3.0,32.15857142857143,,,,1644481216.635577,1
3.0,35.75285714285714,,,,1644481216.7432692,1
3.0,30.24142857142857,,33.29,,1644481216.8509614,1
3.0,13.501428571428573,,,,1644481216.958654,1
3.0,-3.392857142857143,,33.29,,1644481217.0663462,1
3.0,-17.681428571428572,,,,1644481217.1740384,1
3.0,-25.611428571428572,,33.27,,1644481217.2817307,1
3.0,-25.21666666666667,,,,1644481217.3894231,1
3.0,-3.7771428571428567,,,,1644481217.4971154,1
3.0,20.060000000000002,,33.27,,1644481217.6048076,1
3.0,30.267142857142858,,,,1644481217.7125,1
3.0,22.879999999999995,,33.27,,1644481217.8201923,1
3.0,10.087142857142856,,,,1644481217.9278846,1
3.0,7.772857142857142,,33.27,,1644481218.0355768,1
3.0,-9.47,,,,1644481218.1432693,1
3.0,-24.42285714285714,,33.29,,1644481218.2509615,1
3.0,-26.33,,,,1644481218.3586538,1
3.0,-9.07857142857143,,,,1644481218.4663463,1
3.0,1.8628571428571428,,33.29,,1644481218.5740385,1
3.0,10.345714285714283,,,,1644481218.6817307,1
3.0,14.748571428571429,,33.29,,1644481218.789423,1
3.0,9.635714285714286,,,,1644481218.8971155,1
3.0,1.3185714285714287,,33.29,,1644481219.0048077,1
3.0,-11.185714285714285,,,,1644481219.1125,1
3.0,-33.21714285714285,,,,1644481219.2201922,1
3.0,-29.349999999999998,,33.27,,1644481219.3278847,1
3.0,1.4085714285714286,,,,1644481219.435577,1
3.0,15.007142857142856,,33.27,,1644481219.5432692,1
3.0,19.767142857142858,,,,1644481219.6509616,1
3.0,27.41714285714286,,33.27,,1644481219.7586539,1
3.0,31.255714285714287,,,,1644481219.8663461,1
3.0,32.27285714285714,,,,1644481219.9740384,1
3.0,29.12285714285714,,33.27,,1644481220.0817308,1
3.0,36.22571428571429,,,,1644481220.189423,1
3.0,-37.70428571428572,,33.27,,1644481220.2971153,1
3.0,-76.26166666666667,,,,1644481220.4048078,1
3.0,-45.38714285714286,,33.27,,1644481220.5125,1
3.0,-10.30285714285714,,,,1644481220.6201923,1
3.0,1.3228571428571432,,,,1644481220.7278845,1
3.0,6.577142857142857,,33.27,,1644481220.835577,1
3.0,8.430000000000001,,,,1644481220.9432693,1
3.0,4.161428571428571,,33.27,,1644481221.0509615,1
3.0,-13.691428571428572,,,,1644481221.1586537,1
3.0,-32.785714285714285,,33.29,,1644481221.2663462,1
3.0,-13.543333333333335,,,,1644481221.3740385,1
3.0,3.0357142857142856,,,,1644481221.4817307,1
3.0,17.13142857142857,,33.29,,1644481221.5894232,1
3.0,19.678571428571427,,,,1644481221.6971154,1
3.0,19.01285714285714,,33.29,,1644481221.8048077,1
3.0,8.128571428571428,,,,1644481221.9125,1
3.0,-9.65142857142857,,33.29,,1644481222.0201924,1
3.0,-28.814285714285713,,,,1644481222.1278846,1
3.0,-30.545714285714286,,,,1644481222.2355769,1
3.0,-2.411666666666667,,33.27,,1644481222.3432693,1
3.0,16.524285714285714,,,,1644481222.4509616,1
3.0,22.532857142857143,,33.27,,1644481222.5586538,1
3.0,19.430000000000003,,,,1644481222.666346,1
3.0,10.379999999999999,,33.27,,1644481222.7740386,1
3.0,1.9942857142857142,,,,1644481222.8817308,1
3.0,-3.045714285714286,,,,1644481222.989423,1
3.0,16.90285714285714,,33.27,,1644481223.0971153,1
3.0,57.98285714285714,,,,1644481223.2048078,1
3.0,57.656666666666666,,33.27,,1644481223.3125,1
3.0,-7.859999999999999,,,,1644481223.4201922,1
3.0,-11.030000000000001,,33.27,,1644481223.5278847,1
3.0,-19.06,,,,1644481223.635577,1
3.0,-58.104285714285716,,,,1644481223.7432692,1
3.0,-63.279999999999994,,33.27,,1644481223.8509614,1
3.0,-16.481428571428573,,,,1644481223.958654,1
3.0,2.9371428571428564,,33.27,,1644481224.0663462,1
3.0,11.058571428571428,,,,1644481224.1740384,1
3.0,23.255714285714287,,33.27,,1644481224.2817307,1
3.0,20.546666666666667,,,,1644481224.3894231,1
3.0,10.30285714285714,,,,1644481224.4971154,1
3.0,20.74285714285714,,33.27,,1644481224.6048076,1
3.0,-15.634285714285713,,,,1644481224.7125,1
3.0,-51.52142857142858,,33.27,,1644481224.8201923,1
3.0,-24.72714285714286,,,,1644481224.9278846,1
3.0,12.790000000000001,,33.27,,1644481225.0355768,1
3.0,26.048571428571428,,,,1644481225.1432693,1
3.0,22.860000000000003,,33.27,,1644481225.2509615,1
3.0,18.02333333333333,,,,1644481225.3586538,1
3.0,8.604285714285714,,,,1644481225.4663463,1
3.0,-7.909999999999999,,33.27,,1644481225.5740385,1
3.0,-34.78428571428571,,,,1644481225.6817307,1
3.0,-44.449999999999996,,33.27,,1644481225.789423,1
3.0,-10.62857142857143,,,,1644481225.8971155,1
3.0,11.307142857142859,,33.27,,1644481226.0048077,1
3.0,22.035714285714285,,,,1644481226.1125,1
3.0,27.345714285714287,,,,1644481226.2201922,1
3.0,26.298333333333332,,33.27,,1644481226.3278847,1
3.0,17.961428571428574,,,,1644481226.435577,1
3.0,6.607142857142857,,33.27,,1644481226.5432692,1
3.0,-7.765714285714287,,,,1644481226.6509616,1
3.0,-27.99142857142857,,33.27,,1644481226.7586539,1
3.0,-35.387142857142855,,,,1644481226.8663461,1
3.0,-8.552857142857144,,,,1644481226.9740384,1
3.0,12.394285714285715,,33.27,,1644481227.0817308,1
3.0,24.731428571428577,,,,1644481227.189423,1
3.0,25.27285714285714,,33.27,,1644481227.2971153,1
3.0,15.821666666666667,,,,1644481227.4048078,1
3.0,13.002857142857144,,33.27,,1644481227.5125,1
3.0,8.819999999999999,,,,1644481227.6201923,1
3.0,-9.057142857142859,,,,1644481227.7278845,1
3.0,-31.594285714285714,,33.27,,1644481227.835577,1
3.0,-16.774285714285714,,,,1644481227.9432693,1
3.0,7.808571428571429,,33.27,,1644481228.0509615,1
3.0,12.837142857142856,,,,1644481228.1586537,1
3.0,9.187142857142858,,33.25,,1644481228.2663462,1
3.0,11.041666666666666,,,,1644481228.3740385,1
3.0,3.3814285714285717,,,,1644481228.4817307,1
3.0,10.338571428571429,,33.25,,1644481228.5894232,1
3.0,35.07142857142857,,,,1644481228.6971154,1
3.0,6.697142857142859,,33.25,,1644481228.8048077,1
3.0,-43.074285714285715,,,,1644481228.9125,1
3.0,-36.26428571428571,,33.25,,1644481229.0201924,1
3.0,-16.194285714285716,,,,1644481229.1278846,1
3.0,-0.44142857142857145,,,,1644481229.2355769,1
3.0,5.515000000000001,,33.25,,1644481229.3432693,1
3.0,5.01,,,,1644481229.4509616,1
3.0,-6.112857142857144,,33.25,,1644481229.5586538,1
3.0,-22.365714285714287,,,,1644481229.666346,1
3.0,-32.41857142857143,,33.25,,1644481229.7740386,1
3.0,-4.494285714285715,,,,1644481229.8817308,1
3.0,5.352857142857142,,,,1644481229.989423,1
3.0,4.137142857142857,,33.25,,1644481230.0971153,1
3.0,1.804285714285714,,,,1644481230.2048078,1
3.0,8.006666666666666,,33.27,,1644481230.3125,1
3.0,6.698571428571428,,,,1644481230.4201922,1
3.0,0.13857142857142865,,33.27,,1644481230.5278847,1
3.0,-30.572857142857146,,,,1644481230.635577,1
3.0,-28.227142857142855,,,,1644481230.7432692,1
3.0,8.535714285714286,,33.27,,1644481230.8509614,1
3.0,26.478571428571428,,,,1644481230.958654,1
3.0,31.722857142857144,,33.27,,1644481231.0663462,1
3.0,22.99857142857143,,,,1644481231.1740384,1
3.0,8.652857142857142,,33.25,,1644481231.2817307,1
3.0,0.07666666666666673,,,,1644481231.3894231,1
3.0,-16.12,,,,1644481231.4971154,1
3.0,-40.66142857142857,,33.25,,1644481231.6048076,1
3.0,-39.627142857142864,,,,1644481231.7125,1
3.0,-4.655714285714287,,33.25,,1644481231.8201923,1
3.0,19.72,,,,1644481231.9278846,1
3.0,29.108571428571427,,33.25,,1644481232.0355768,1
3.0,24.685714285714283,,,,1644481232.1432693,1
3.0,3.5799999999999996,,33.29,,1644481232.2509615,1
3.0,-2.14,,,,1644481232.3586538,1
3.0,-11.66285714285714,,,,1644481232.4663463,1
3.0,-30.635714285714283,,33.29,,1644481232.5740385,1
3.0,-17.18,,,,1644481232.6817307,1
3.0,9.197142857142856,,33.29,,1644481232.789423,1
3.0,19.237142857142857,,,,1644481232.8971155,1
3.0,14.575714285714286,,33.29,,1644481233.0048077,1
3.0,13.755714285714287,,,,1644481233.1125,1
3.0,7.587142857142856,,,,1644481233.2201922,1
3.0,-6.91,,33.29,,1644481233.3278847,1
3.0,-29.93142857142857,,,,1644481233.435577,1
3.0,-24.972857142857144,,33.29,,1644481233.5432692,1
3.0,6.334285714285714,,,,1644481233.6509616,1
3.0,16.805714285714284,,33.29,,1644481233.7586539,1
3.0,19.811428571428568,,,,1644481233.8663461,1
3.0,25.797142857142855,,,,1644481233.9740384,1
3.0,15.024285714285714,,33.29,,1644481234.0817308,1
3.0,-5.511428571428572,,,,1644481234.189423,1
3.0,-25.415714285714284,,33.25,,1644481234.2971153,1
3.0,-43.68333333333334,,,,1644481234.4048078,1
3.0,-28.73,,33.25,,1644481234.5125,1
3.0,6.1242857142857146,,,,1644481234.6201923,1
3.0,17.225714285714282,,,,1644481234.7278845,1
3.0,33.660000000000004,,33.25,,1644481234.835577,1
3.0,44.370000000000005,,,,1644481234.9432693,1
3.0,24.744285714285716,,33.25,,1644481235.0509615,1
3.0,-21.79714285714286,,,,1644481235.1586537,1
3.0,-37.72571428571429,,33.27,,1644481235.2663462,1
3.0,-65.91166666666666,,,,1644481235.3740385,1
3.0,-36.93285714285714,,,,1644481235.4817307,1
3.0,11.33714285714286,,33.27,,1644481235.5894232,1
3.0,35.17714285714286,,,,1644481235.6971154,1
3.0,32.44714285714286,,33.27,,1644481235.8048077,1
3.0,17.152857142857144,,,,1644481235.9125,1
3.0,10.894285714285715,,33.27,,1644481236.0201924,1
3.0,-6.4142857142857155,,,,1644481236.1278846,1
3.0,-34.895714285714284,,,,1644481236.2355769,1
3.0,-45.12166666666667,,33.27,,1644481236.3432693,1
3.0,-2.0557142857142856,,,,1644481236.4509616,1
3.0,11.388571428571428,,33.27,,1644481236.5586538,1
3.0,18.792857142857144,,,,1644481236.666346,1
3.0,11.001428571428571,,33.27,,1644481236.7740386,1
3.0,19.56142857142857,,,,1644481236.8817308,1
3.0,16.274285714285718,,,,1644481236.989423,1
3.0,-9.799999999999999,,33.27,,1644481237.0971153,1
3.0,-41.25857142857143,,,,1644481237.2048078,1
3.0,-38.31333333333333,,33.29,,1644481237.3125,1
3.0,-2.291428571428572,,,,1644481237.4201922,1
3.0,18.275714285714287,,33.29,,1644481237.5278847,1
3.0,33.73428571428572,,,,1644481237.635577,1
3.0,30.28857142857143,,,,1644481237.7432692,1
3.0,19.071428571428573,,33.29,,1644481237.8509614,1
3.0,10.265714285714287,,,,1644481237.958654,1
3.0,-11.799999999999999,,33.29,,1644481238.0663462,1
3.0,-34.03857142857143,,,,1644481238.1740384,1
3.0,-36.88142857142857,,33.25,,1644481238.2817307,1
3.0,-1.6499999999999997,,,,1644481238.3894231,1
3.0,16.41,,,,1644481238.4971154,1
3.0,21.214285714285715,,33.25,,1644481238.6048076,1
3.0,23.360000000000003,,,,1644481238.7125,1
3.0,13.39,,33.25,,1644481238.8201923,1
3.0,4.4314285714285715,,,,1644481238.9278846,1
3.0,-14.537142857142857,,33.25,,1644481239.0355768,1
3.0,-31.55142857142857,,,,1644481239.1432693,1
3.0,-9.414285714285713,,33.25,,1644481239.2509615,1
3.0,5.191666666666667,,,,1644481239.3586538,1
3.0,22.310000000000002,,,,1644481239.4663463,1
3.0,25.181428571428572,,33.25,,1644481239.5740385,1
3.0,17.375714285714288,,,,1644481239.6817307,1
3.0,8.035714285714285,,33.25,,1644481239.789423,1
3.0,-8.074285714285717,,,,1644481239.8971155,1
3.0,-39.181428571428576,,33.25,,1644481240.0048077,1
3.0,-34.90428571428571,,,,1644481240.1125,1
3.0,-0.2771428571428573,,,,1644481240.2201922,1
3.0,19.33833333333333,,33.25,,1644481240.3278847,1
3.0,23.354285714285712,,,,1644481240.435577,1
3.0,22.30857142857143,,33.25,,1644481240.5432692,1
3.0,10.539999999999997,,,,1644481240.6509616,1
3.0,-3.0800000000000005,,33.25,,1644481240.7586539,1
3.0,-26.51285714285714,,,,1644481240.8663461,1
3.0,-37.24285714285714,,,,1644481240.9740384,1
3.0,-2.3785714285714286,,33.25,,1644481241.0817308,1
3.0,20.78857142857143,,,,1644481241.189423,1
3.0,20.77857142857143,,33.25,,1644481241.2971153,1
3.0,16.78,,,,1644481241.4048078,1
3.0,8.319999999999999,,33.25,,1644481241.5125,1
3.0,2.0000000000000004,,,,1644481241.6201923,1
3.0,-12.14,,,,1644481241.7278845,1
3.0,-39.89714285714285,,33.25,,1644481241.835577,1
3.0,-28.251428571428573,,,,1644481241.9432693,1
3.0,5.492857142857143,,33.25,,1644481242.0509615,1
3.0,26.458571428571425,,,,1644481242.1586537,1
3.0,36.80571428571428,,33.25,,1644481242.2663462,1
3.0,37.471666666666664,,,,1644481242.3740385,1
3.0,23.569999999999997,,,,1644481242.4817307,1
3.0,1.202857142857143,,33.25,,1644481242.5894232,1
3.0,-22.307142857142857,,,,1644481242.6971154,1
3.0,-49.42000000000001,,33.25,,1644481242.8048077,1
3.0,-32.49142857142857,,,,1644481242.9125,1
3.0,0.8828571428571428,,33.25,,1644481243.0201924,1
3.0,17.16142857142857,,,,1644481243.1278846,1
3.0,17.97857142857143,,,,1644481243.2355769,1
3.0,15.079999999999998,,33.25,,1644481243.3432693,1
3.0,10.679999999999998,,,,1644481243.4509616,1
3.0,4.981428571428571,,33.25,,1644481243.5586538,1
3.0,-12.962857142857144,,,,1644481243.666346,1
3.0,-38.40857142857143,,33.25,,1644481243.7740386,1
3.0,-14.187142857142858,,,,1644481243.8817308,1
3.0,2.551428571428571,,,,1644481243.989423,1
3.0,17.99285714285714,,33.25,,1644481244.0971153,1
3.0,26.21285714285714,,,,1644481244.2048078,1
3.0,22.23,,33.25,,1644481244.3125,1
3.0,14.497142857142856,,,,1644481244.4201922,1
3.0,-8.40857142857143,,33.25,,1644481244.5278847,1
3.0,-31.981428571428573,,,,1644481244.635577,1
3.0,-44.08571428571428,,,,1644481244.7432692,1
3.0,-13.5,,33.25,,1644481244.8509614,1
3.0,7.145714285714286,,,,1644481244.958654,1
3.0,20.541428571428572,,33.25,,1644481245.0663462,1
3.0,20.622857142857146,,,,1644481245.1740384,1
3.0,7.630000000000001,,33.25,,1644481245.2817307,1
3.0,-5.5183333333333335,,,,1644481245.3894231,1
3.0,-13.692857142857141,,,,1644481245.4971154,1
3.0,-19.518571428571427,,33.25,,1644481245.6048076,1
3.0,17.212857142857143,,,,1644481245.7125,1
3.0,26.072857142857142,,33.25,,1644481245.8201923,1
3.0,23.25,,,,1644481245.9278846,1
3.0,18.737142857142857,,33.25,,1644481246.0355768,1
3.0,-27.051428571428573,,,,1644481246.1432693,1
3.0,-22.655714285714282,,33.27,,1644481246.2509615,1
3.0,-22.606666666666666,,,,1644481246.3586538,1
3.0,-37.21142857142858,,,,1644481246.4663463,1
3.0,-24.534285714285716,,33.27,,1644481246.5740385,1
3.0,8.458571428571428,,,,1644481246.6817307,1
3.0,32.98714285714285,,33.27,,1644481246.789423,1
3.0,34.33714285714286,,,,1644481246.8971155,1
3.0,29.428571428571427,,33.27,,1644481247.0048077,1
3.0,14.851428571428572,,,,1644481247.1125,1
3.0,-1.237142857142857,,,,1644481247.2201922,1
3.0,-13.13,,33.25,,1644481247.3278847,1
3.0,-36.589999999999996,,,,1644481247.435577,1
3.0,-27.84714285714286,,33.25,,1644481247.5432692,1
3.0,3.3557142857142854,,,,1644481247.6509616,1
3.0,26.782857142857146,,33.25,,1644481247.7586539,1
3.0,33.28285714285714,,,,1644481247.8663461,1
3.0,29.575714285714287,,,,1644481247.9740384,1
3.0,18.918571428571425,,33.25,,1644481248.0817308,1
3.0,8.592857142857143,,,,1644481248.189423,1
3.0,-11.035714285714286,,33.23,,1644481248.2971153,1
3.0,-36.401666666666664,,,,1644481248.4048078,1
3.0,-33.965714285714284,,33.23,,1644481248.5125,1
3.0,-3.0557142857142865,,,,1644481248.6201923,1
3.0,18.287142857142857,,,,1644481248.7278845,1
3.0,29.85285714285714,,33.23,,1644481248.835577,1
3.0,30.374285714285715,,,,1644481248.9432693,1
3.0,15.984285714285715,,33.23,,1644481249.0509615,1
3.0,1.1171428571428572,,,,1644481249.1586537,1
3.0,-23.224285714285713,,33.25,,1644481249.2663462,1
3.0,-48.099999999999994,,,,1644481249.3740385,1
3.0,-34.605714285714285,,,,1644481249.4817307,1
3.0,6.431428571428571,,33.25,,1644481249.5894232,1
3.0,24.770000000000003,,,,1644481249.6971154,1
3.0,37.80285714285714,,33.25,,1644481249.8048077,1
3.0,10.218571428571428,,,,1644481249.9125,1
3.0,2.4528571428571433,,33.25,,1644481250.0201924,1
3.0,-6.882857142857143,,,,1644481250.1278846,1
3.0,-33.02428571428572,,,,1644481250.2355769,1
3.0,-15.381666666666668,,33.27,,1644481250.3432693,1
3.0,1.8685714285714285,,,,1644481250.4509616,1
3.0,12.695714285714287,,33.27,,1644481250.5586538,1
3.0,20.077142857142857,,,,1644481250.666346,1
3.0,11.338571428571429,,33.27,,1644481250.7740386,1
3.0,-3.412857142857143,,,,1644481250.8817308,1
3.0,-20.29,,,,1644481250.989423,1
3.0,-41.27428571428572,,33.27,,1644481251.0971153,1
3.0,-25.949999999999996,,,,1644481251.2048078,1
3.0,1.2250000000000003,,33.27,,1644481251.3125,1
3.0,17.222857142857144,,,,1644481251.4201922,1
3.0,26.905714285714286,,33.27,,1644481251.5278847,1
3.0,22.178571428571434,,,,1644481251.635577,1
3.0,2.914285714285714,,,,1644481251.7432692,1
3.0,-15.847142857142858,,33.27,,1644481251.8509614,1
3.0,-42.73571428571428,,,,1644481251.958654,1
3.0,-37.604285714285716,,33.27,,1644481252.0663462,1
3.0,4.57,,,,1644481252.1740384,1
3.0,21.724285714285713,,33.23,,1644481252.2817307,1
3.0,34.288333333333334,,,,1644481252.3894231,1
3.0,32.48428571428571,,,,1644481252.4971154,1
3.0,7.622857142857143,,33.23,,1644481252.6048076,1
3.0,-2.4057142857142857,,,,1644481252.7125,1
3.0,-12.781428571428572,,33.23,,1644481252.8201923,1
3.0,-37.57285714285714,,,,1644481252.9278846,1
3.0,-21.815714285714286,,33.23,,1644481253.0355768,1
3.0,-0.40142857142857125,,,,1644481253.1432693,1
3.0,18.314285714285713,,33.25,,1644481253.2509615,1
3.0,28.325,,,,1644481253.3586538,1
3.0,20.21,,,,1644481253.4663463,1
3.0,5.318571428571429,,33.25,,1644481253.5740385,1
3.0,-6.93,,,,1644481253.6817307,1
3.0,-19.024285714285718,,33.25,,1644481253.789423,1
3.0,-28.972857142857144,,,,1644481253.8971155,1
3.0,-0.6585714285714285,,33.25,,1644481254.0048077,1
3.0,11.687142857142856,,,,1644481254.1125,1
3.0,13.385714285714284,,,,1644481254.2201922,1
3.0,11.933333333333335,,33.23,,1644481254.3278847,1
3.0,3.2800000000000002,,,,1644481254.435577,1
3.0,-3.7585714285714285,,33.23,,1644481254.5432692,1
3.0,-4.824285714285715,,,,1644481254.6509616,1
3.0,-15.9,,33.23,,1644481254.7586539,1
3.0,2.4814285714285718,,,,1644481254.8663461,1
3.0,21.322857142857142,,,,1644481254.9740384,1
3.0,-9.171428571428573,,33.23,,1644481255.0817308,1
3.0,5.395714285714286,,,,1644481255.189423,1
3.0,2.69,,33.25,,1644481255.2971153,1
3.0,-4.243333333333333,,,,1644481255.4048078,1
3.0,-20.69,,33.25,,1644481255.5125,1
3.0,-47.28000000000001,,,,1644481255.6201923,1
3.0,-25.919999999999995,,,,1644481255.7278845,1
3.0,7.3342857142857145,,33.25,,1644481255.835577,1
3.0,21.41857142857143,,,,1644481255.9432693,1
3.0,23.532857142857146,,33.25,,1644481256.0509615,1
3.0,19.398571428571426,,,,1644481256.1586537,1
3.0,15.418571428571429,,33.23,,1644481256.2663462,1
3.0,8.736666666666666,,,,1644481256.3740385,1
3.0,-0.4642857142857138,,,,1644481256.4817307,1
3.0,-18.138571428571428,,33.23,,1644481256.5894232,1
3.0,-23.512857142857143,,,,1644481256.6971154,1
3.0,-15.034285714285716,,33.23,,1644481256.8048077,1
3.0,11.595714285714283,,,,1644481256.9125,1
3.0,21.130000000000003,,33.23,,1644481257.0201924,1
3.0,12.108571428571427,,,,1644481257.1278846,1
3.0,-1.241428571428571,,,,1644481257.2355769,1
3.0,-21.146666666666665,,33.25,,1644481257.3432693,1
3.0,-42.69714285714285,,,,1644481257.4509616,1
3.0,-18.642857142857142,,33.25,,1644481257.5586538,1
3.0,5.3914285714285715,,,,1644481257.666346,1
3.0,15.558571428571428,,33.25,,1644481257.7740386,1
3.0,16.62857142857143,,,,1644481257.8817308,1
3.0,1.8071428571428574,,,,1644481257.989423,1
3.0,-8.004285714285714,,33.25,,1644481258.0971153,1
3.0,-24.290000000000003,,,,1644481258.2048078,1
3.0,-46.72833333333333,,33.25,,1644481258.3125,1
3.0,-16.380000000000003,,,,1644481258.4201922,1
3.0,22.807142857142857,,33.25,,1644481258.5278847,1
3.0,27.33285714285714,,,,1644481258.635577,1
3.0,32.279999999999994,,,,1644481258.7432692,1
3.0,37.457142857142856,,33.25,,1644481258.8509614,1
3.0,22.880000000000003,,,,1644481258.958654,1
3.0,-9.64,,33.25,,1644481259.0663462,1
3.0,-45.71,,,,1644481259.1740384,1
3.0,-28.07428571428571,,33.23,,1644481259.2817307,1
3.0,-0.9266666666666673,,,,1644481259.3894231,1
3.0,12.762857142857143,,,,1644481259.4971154,1
3.0,28.928571428571427,,33.23,,1644481259.6048076,1
3.0,34.13142857142857,,,,1644481259.7125,1
3.0,17.724285714285717,,33.23,,1644481259.8201923,1
3.0,-5.857142857142857,,,,1644481259.9278846,1
3.0,-32.32142857142857,,33.23,,1644481260.0355768,1
3.0,-51.181428571428576,,,,1644481260.1432693,1
3.0,-13.06,,33.25,,1644481260.2509615,1
3.0,11.079999999999998,,,,1644481260.3586538,1
3.0,27.265714285714285,,,,1644481260.4663463,1
3.0,30.424285714285713,,33.25,,1644481260.5740385,1
3.0,15.070000000000002,,,,1644481260.6817307,1
3.0,8.638571428571428,,33.25,,1644481260.789423,1
3.0,-6.121428571428571,,,,1644481260.8971155,1
3.0,-23.842857142857145,,33.25,,1644481261.0048077,1
3.0,-30.51714285714286,,,,1644481261.1125,1
3.0,7.848571428571428,,,,1644481261.2201922,1
3.0,34.43,,33.23,,1644481261.3278847,1
3.0,52.97571428571429,,,,1644481261.435577,1
3.0,43.645714285714284,,33.23,,1644481261.5432692,1
3.0,31.609999999999996,,,,1644481261.6509616,1
3.0,-9.977142857142857,,33.23,,1644481261.7586539,1
3.0,-50.58714285714285,,,,1644481261.8663461,1
3.0,-59.941428571428574,,,,1644481261.9740384,1
3.0,-28.054285714285715,,33.23,,1644481262.0817308,1
3.0,7.904285714285714,,,,1644481262.189423,1
3.0,26.162857142857142,,33.23,,1644481262.2971153,1
3.0,38.620000000000005,,,,1644481262.4048078,1
3.0,15.56,,33.23,,1644481262.5125,1
3.0,-5.508571428571429,,,,1644481262.6201923,1
3.0,-45.07142857142857,,,,1644481262.7278845,1
3.0,-63.63999999999999,,33.23,,1644481262.835577,1
3.0,-13.95,,,,1644481262.9432693,1
3.0,9.282857142857143,,33.23,,1644481263.0509615,1
3.0,13.820000000000002,,,,1644481263.1586537,1
3.0,25.30142857142857,,33.25,,1644481263.2663462,1
3.0,12.486666666666666,,,,1644481263.3740385,1
3.0,-3.5100000000000002,,,,1644481263.4817307,1
3.0,-31.247142857142858,,33.25,,1644481263.5894232,1
3.0,-17.705714285714286,,,,1644481263.6971154,1
3.0,7.572857142857143,,33.25,,1644481263.8048077,1
3.0,26.890000000000004,,,,1644481263.9125,1
3.0,33.90857142857143,,33.25,,1644481264.0201924,1
3.0,32.56428571428572,,,,1644481264.1278846,1
3.0,17.875714285714288,,,,1644481264.2355769,1
3.0,-6.4366666666666665,,33.25,,1644481264.3432693,1
3.0,-35.642857142857146,,,,1644481264.4509616,1
3.0,-39.91571428571429,,33.25,,1644481264.5586538,1
3.0,-6.914285714285714,,,,1644481264.666346,1
3.0,18.451428571428576,,33.25,,1644481264.7740386,1
3.0,25.080000000000002,,,,1644481264.8817308,1
3.0,21.69714285714286,,,,1644481264.989423,1
3.0,8.501428571428571,,33.25,,1644481265.0971153,1
3.0,-11.172857142857143,,,,1644481265.2048078,1
3.0,-29.301666666666662,,33.25,,1644481265.3125,1
3.0,-29.23714285714286,,,,1644481265.4201922,1
3.0,2.7642857142857133,,33.25,,1644481265.5278847,1
3.0,22.87,,,,1644481265.635577,1
3.0,29.53,,,,1644481265.7432692,1
3.0,36.48285714285714,,33.25,,1644481265.8509614,1
3.0,22.900000000000002,,,,1644481265.958654,1
3.0,3.917142857142857,,33.25,,1644481266.0663462,1
3.0,-18.2,,,,1644481266.1740384,1
3.0,-44.25285714285714,,33.23,,1644481266.2817307,1
3.0,-41.151666666666664,,,,1644481266.3894231,1
3.0,-5.898571428571429,,,,1644481266.4971154,1
3.0,18.525714285714287,,33.23,,1644481266.6048076,1
3.0,21.65,,,,1644481266.7125,1
3.0,10.860000000000001,,33.23,,1644481266.8201923,1
3.0,6.261428571428572,,,,1644481266.9278846,1
3.0,-14.797142857142855,,33.23,,1644481267.0355768,1
3.0,-46.14571428571429,,,,1644481267.1432693,1
3.0,-28.00714285714286,,33.25,,1644481267.2509615,1
3.0,4.756666666666667,,,,1644481267.3586538,1
3.0,20.66,,,,1644481267.4663463,1
3.0,31.55,,33.25,,1644481267.5740385,1
3.0,23.50857142857143,,,,1644481267.6817307,1
3.0,6.827142857142857,,33.25,,1644481267.789423,1
3.0,-10.962857142857144,,,,1644481267.8971155,1
3.0,-33.96571428571429,,33.25,,1644481268.0048077,1
3.0,-28.791428571428575,,,,1644481268.1125,1
3.0,4.817142857142857,,,,1644481268.2201922,1
3.0,21.52333333333333,,33.25,,1644481268.3278847,1
3.0,26.055714285714284,,,,1644481268.435577,1
3.0,20.444285714285716,,33.25,,1644481268.5432692,1
3.0,6.058571428571428,,,,1644481268.6509616,1
3.0,-9.617142857142857,,33.25,,1644481268.7586539,1
3.0,-25.321428571428573,,,,1644481268.8663461,1
3.0,-48.612857142857145,,,,1644481268.9740384,1
3.0,-22.867142857142856,,33.25,,1644481269.0817308,1
3.0,4.312857142857142,,,,1644481269.189423,1
3.0,23.830000000000002,,33.25,,1644481269.2971153,1
3.0,27.298333333333332,,,,1644481269.4048078,1
3.0,22.961428571428574,,33.25,,1644481269.5125,1
3.0,8.55,,,,1644481269.6201923,1
3.0,-5.140000000000001,,,,1644481269.7278845,1
3.0,-23.41142857142857,,33.25,,1644481269.835577,1
3.0,-34.35857142857144,,,,1644481269.9432693,1
3.0,2.7100000000000004,,33.25,,1644481270.0509615,1
3.0,22.648571428571426,,,,1644481270.1586537,1
3.0,26.06,,33.25,,1644481270.2663462,1
3.0,21.828333333333333,,,,1644481270.3740385,1
3.0,14.608571428571427,,,,1644481270.4817307,1
3.0,1.4357142857142857,,33.25,,1644481270.5894232,1
3.0,-9.69,,,,1644481270.6971154,1
3.0,-28.73428571428571,,33.25,,1644481270.8048077,1
3.0,-36.79571428571428,,,,1644481270.9125,1
3.0,-1.2428571428571427,,33.25,,1644481271.0201924,1
3.0,15.705714285714285,,,,1644481271.1278846,1
3.0,20.92142857142857,,,,1644481271.2355769,1
3.0,22.063333333333333,,33.25,,1644481271.3432693,1
3.0,9.962857142857143,,,,1644481271.4509616,1
3.0,-2.0228571428571436,,33.25,,1644481271.5586538,1
3.0,-20.428571428571427,,,,1644481271.666346,1
3.0,-46.02428571428572,,33.25,,1644481271.7740386,1
3.0,-36.19714285714285,,,,1644481271.8817308,1
3.0,-3.8428571428571425,,,,1644481271.989423,1
3.0,21.638571428571428,,33.25,,1644481272.0971153,1
3.0,34.78285714285715,,,,1644481272.2048078,1
3.0,30.766666666666666,,33.25,,1644481272.3125,1
3.0,17.87285714285714,,,,1644481272.4201922,1
3.0,-8.521428571428572,,33.25,,1644481272.5278847,1
3.0,-40.11571428571428,,,,1644481272.635577,1
3.0,-29.572857142857142,,,,1644481272.7432692,1
3.0,2.0085714285714285,,33.25,,1644481272.8509614,1
3.0,17.708571428571428,,,,1644481272.958654,1
3.0,26.252857142857142,,33.25,,1644481273.0663462,1
3.0,19.069999999999997,,,,1644481273.1740384,1
3.0,1.5842857142857145,,33.25,,1644481273.2817307,1
3.0,-19.736666666666665,,,,1644481273.3894231,1
3.0,-42.354285714285716,,,,1644481273.4971154,1
3.0,-46.50857142857143,,33.25,,1644481273.6048076,1
3.0,-5.759999999999999,,,,1644481273.7125,1
3.0,16.85142857142857,,33.25,,1644481273.8201923,1
3.0,27.967142857142854,,,,1644481273.9278846,1
3.0,34.13857142857143,,33.25,,1644481274.0355768,1
3.0,32.60142857142858,,,,1644481274.1432693,1
3.0,22.047142857142855,,33.27,,1644481274.2509615,1
3.0,1.6116666666666666,,,,1644481274.3586538,1
3.0,-26.527142857142852,,,,1644481274.4663463,1
3.0,-34.41571428571429,,33.27,,1644481274.5740385,1
3.0,-4.757142857142857,,,,1644481274.6817307,1
3.0,14.118571428571428,,33.27,,1644481274.789423,1
3.0,21.53142857142857,,,,1644481274.8971155,1
3.0,22.647142857142857,,33.27,,1644481275.0048077,1
3.0,14.975714285714286,,,,1644481275.1125,1
3.0,4.221428571428572,,,,1644481275.2201922,1
3.0,-12.19,,33.25,,1644481275.3278847,1
3.0,-35.801428571428566,,,,1644481275.435577,1
3.0,-30.035714285714285,,33.25,,1644481275.5432692,1
3.0,-5.431428571428571,,,,1644481275.6509616,1
3.0,4.624285714285714,,33.25,,1644481275.7586539,1
3.0,16.328571428571426,,,,1644481275.8663461,1
3.0,13.040000000000003,,,,1644481275.9740384,1
3.0,-1.0200000000000002,,33.25,,1644481276.0817308,1
3.0,-11.641428571428571,,,,1644481276.189423,1
3.0,-25.91857142857143,,33.25,,1644481276.2971153,1
3.0,-25.24,,,,1644481276.4048078,1
3.0,-0.9814285714285715,,33.25,,1644481276.5125,1
3.0,16.639999999999997,,,,1644481276.6201923,1
3.0,18.87,,,,1644481276.7278845,1
3.0,25.885714285714283,,33.25,,1644481276.835577,1
3.0,17.55857142857143,,,,1644481276.9432693,1
3.0,4.71,,33.25,,1644481277.0509615,1
3.0,-22.492857142857144,,,,1644481277.1586537,1
3.0,-40.28142857142858,,33.25,,1644481277.2663462,1
3.0,-19.56,,,,1644481277.3740385,1
3.0,7.344285714285715,,,,1644481277.4817307,1
3.0,22.804285714285715,,33.25,,1644481277.5894232,1
3.0,27.55,,,,1644481277.6971154,1
3.0,23.68857142857143,,33.25,,1644481277.8048077,1
3.0,13.61142857142857,,,,1644481277.9125,1
3.0,-1.5114285714285711,,33.25,,1644481278.0201924,1
3.0,-13.744285714285713,,,,1644481278.1278846,1
3.0,-30.488571428571426,,,,1644481278.2355769,1
3.0,-22.46166666666667,,33.23,,1644481278.3432693,1
3.0,-0.43571428571428594,,,,1644481278.4509616,1
3.0,14.897142857142857,,33.23,,1644481278.5586538,1
3.0,14.124285714285715,,,,1644481278.666346,1
3.0,9.48,,33.23,,1644481278.7740386,1
3.0,2.6957142857142857,,,,1644481278.8817308,1
3.0,-9.737142857142857,,,,1644481278.989423,1
3.0,-28.33142857142857,,33.23,,1644481279.0971153,1
3.0,-19.145714285714288,,,,1644481279.2048078,1
3.0,3.231666666666667,,33.25,,1644481279.3125,1
3.0,22.24142857142857,,,,1644481279.4201922,1
3.0,30.86428571428571,,33.25,,1644481279.5278847,1
3.0,27.927142857142854,,,,1644481279.635577,1
3.0,12.045714285714286,,,,1644481279.7432692,1
3.0,-6.54,,33.25,,1644481279.8509614,1
3.0,-24.852857142857143,,,,1644481279.958654,1
3.0,-34.17428571428571,,33.25,,1644481280.0663462,1
3.0,-7.7542857142857144,,,,1644481280.1740384,1
3.0,3.7571428571428567,,33.23,,1644481280.2817307,1
3.0,4.985,,,,1644481280.3894231,1
3.0,5.792857142857144,,,,1644481280.4971154,1
3.0,9.09142857142857,,33.23,,1644481280.6048076,1
3.0,1.547142857142857,,,,1644481280.7125,1
3.0,-20.744285714285716,,33.23,,1644481280.8201923,1
3.0,-55.952857142857134,,,,1644481280.9278846,1
3.0,-56.297142857142866,,33.23,,1644481281.0355768,1
3.0,-52.46142857142858,,,,1644481281.1432693,1
3.0,-54.64714285714286,,33.25,,1644481281.2509615,1
3.0,-72.90333333333334,,,,1644481281.3586538,1
3.0,-95.01285714285713,,,,1644481281.4663463,1
3.0,-61.71142857142858,,33.25,,1644481281.5740385,1
3.0,6.815714285714286,,,,1644481281.6817307,1
3.0,11.911428571428571,,33.25,,1644481281.789423,1
3.0,102.06714285714285,,,,1644481281.8971155,1
3.0,106.98142857142857,,33.25,,1644481282.0048077,1
3.0,93.00142857142858,,,,1644481282.1125,1
3.0,135.0857142857143,,,,1644481282.2201922,1
3.0,233.24333333333334,,33.25,,1644481282.3278847,1
