ID,empatica_bvp,empatica_eda,empatica_temp,samsung_bvp,time,CL
9.0,-3.5549999999999997,,,2234067.0,1637401885.4725695,1
9.0,-3.41,,,,1637401885.492014,1
9.0,-3.24,1.269753,35.89,2233975.0,1637401885.5114584,1
9.0,-3.02,,,,1637401885.5309029,1
9.0,-2.935,,,2233607.0,1637401885.5503473,1
9.0,-3.45,,,,1637401885.5697916,1
9.0,-4.31,,,2233811.0,1637401885.589236,1
9.0,-5.55,,,,1637401885.6086805,1
9.0,-8.0,,,,1637401885.628125,1
9.0,-10.7,,,2233550.0,1637401885.6475694,1
9.0,-12.43,,,,1637401885.667014,1
9.0,-13.96,,,2233827.0,1637401885.6864583,1
9.0,-15.75,,,,1637401885.7059028,1
9.0,-17.18,,,2233875.0,1637401885.7253473,1
9.0,-17.95,,,,1637401885.7447917,1
9.0,-18.44,1.277438,35.89,2233854.0,1637401885.7642362,1
9.0,-17.994999999999997,,,,1637401885.7836804,1
9.0,-15.9,,,2234239.0,1637401885.803125,1
9.0,-13.44,,,,1637401885.8225694,1
9.0,-10.5,,,2234073.0,1637401885.8420138,1
9.0,-6.025,,,,1637401885.8614583,1
9.0,-2.17,,,2232222.0,1637401885.8809028,1
9.0,-0.34,,,,1637401885.9003472,1
9.0,0.75,,,2229525.0,1637401885.9197917,1
9.0,0.76,,,,1637401885.9392362,1
9.0,-0.57,,,2227172.0,1637401885.9586806,1
9.0,-1.82,,,,1637401885.978125,1
9.0,-2.93,,,2225457.0,1637401885.9975696,1
9.0,-4.154999999999999,1.324833,35.89,,1637401886.0170138,1
9.0,-5.42,,,2223964.0,1637401886.0364583,1
9.0,-6.75,,,,1637401886.0559027,1
9.0,-8.58,,,2222997.0,1637401886.0753472,1
9.0,-11.855,,,,1637401886.0947917,1
9.0,-14.9,,,2222092.0,1637401886.114236,1
9.0,-16.33,,,,1637401886.1336806,1
9.0,-17.18,,,2220993.0,1637401886.153125,1
9.0,-17.689999999999998,,,,1637401886.1725695,1
9.0,-18.28,,,2220183.0,1637401886.192014,1
9.0,-19.31,,,,1637401886.2114584,1
9.0,-20.99,,,,1637401886.2309027,1
9.0,-23.875,1.281281,35.89,2219463.0,1637401886.2503471,1
9.0,-25.63,,,,1637401886.2697916,1
9.0,-25.35,,,2218693.0,1637401886.289236,1
9.0,-24.2,,,,1637401886.3086805,1
9.0,-22.95,,,2218122.0,1637401886.328125,1
9.0,-22.735,,,,1637401886.3475695,1
9.0,-24.31,,,2217872.0,1637401886.367014,1
9.0,-25.17,,,,1637401886.3864584,1
9.0,-24.35,,,2217799.0,1637401886.4059029,1
9.0,-18.365,,,,1637401886.4253473,1
9.0,-8.86,,,2217656.0,1637401886.4447916,1
9.0,-2.09,,,,1637401886.464236,1
9.0,3.91,,,2217989.0,1637401886.4836805,1
9.0,12.21,1.273596,35.89,,1637401886.503125,1
9.0,22.37,,,2218180.0,1637401886.5225694,1
9.0,31.74,,,,1637401886.542014,1
9.0,42.97,,,2218195.0,1637401886.5614583,1
9.0,61.42,,,,1637401886.5809028,1
9.0,79.54,,,2217970.0,1637401886.6003473,1
9.0,90.6,,,,1637401886.6197917,1
9.0,100.38,,,2218190.0,1637401886.6392362,1
9.0,110.87,,,,1637401886.6586804,1
9.0,116.03,,,2218105.0,1637401886.678125,1
9.0,116.56,,,,1637401886.6975694,1
9.0,116.66,,,2218372.0,1637401886.7170138,1
9.0,120.025,,,,1637401886.7364583,1
9.0,127.63,1.276157,35.89,2218476.0,1637401886.7559028,1
9.0,132.77,,,,1637401886.7753472,1
9.0,133.75,,,2219208.0,1637401886.7947917,1
9.0,120.38,,,,1637401886.8142362,1
9.0,94.16,,,2219387.0,1637401886.8336806,1
9.0,75.83,,,,1637401886.853125,1
9.0,64.27,,,2218859.0,1637401886.8725696,1
9.0,64.355,,,,1637401886.8920138,1
9.0,69.59,,,2216742.0,1637401886.9114583,1
9.0,62.15,,,,1637401886.9309027,1
9.0,38.88,,,,1637401886.9503472,1
9.0,-19.885,,,2214219.0,1637401886.9697917,1
9.0,-78.69,,,,1637401886.989236,1
9.0,-102.18,1.268472,35.89,2214625.0,1637401887.0086806,1
9.0,-109.91,,,,1637401887.028125,1
9.0,-102.25,,,2217032.0,1637401887.0475695,1
9.0,-91.81,,,,1637401887.067014,1
9.0,-88.53,,,2215679.0,1637401887.0864584,1
9.0,-86.56,,,,1637401887.1059027,1
9.0,-79.84,,,2213248.0,1637401887.1253471,1
9.0,-68.53,,,,1637401887.1447916,1
9.0,-61.67,,,2210599.0,1637401887.164236,1
9.0,-58.7,,,,1637401887.1836805,1
9.0,-60.38,,,2209645.0,1637401887.203125,1
9.0,-67.41,,,,1637401887.2225695,1
9.0,-71.53,,,2211932.0,1637401887.242014,1
9.0,-69.01,1.276157,35.89,,1637401887.2614584,1
9.0,-62.75,,,2212997.0,1637401887.2809029,1
9.0,-51.33,,,,1637401887.3003473,1
9.0,-43.39,,,2213374.0,1637401887.3197916,1
9.0,-41.75,,,,1637401887.339236,1
9.0,-41.7,,,2214319.0,1637401887.3586805,1
9.0,-39.91,,,,1637401887.378125,1
9.0,-33.24,,,2215237.0,1637401887.3975694,1
9.0,-25.77,,,,1637401887.417014,1
9.0,-17.85,,,2217458.0,1637401887.4364583,1
9.0,-9.09,,,,1637401887.4559028,1
9.0,-5.21,,,2219786.0,1637401887.4753473,1
9.0,-5.06,,,,1637401887.4947917,1
9.0,-5.28,1.274876,35.89,2221488.0,1637401887.5142362,1
9.0,-3.8150000000000004,,,,1637401887.5336804,1
9.0,0.08,,,2223141.0,1637401887.553125,1
9.0,3.68,,,,1637401887.5725694,1
9.0,7.28,,,2222357.0,1637401887.5920138,1
9.0,11.870000000000001,,,,1637401887.6114583,1
9.0,15.79,,,,1637401887.6309028,1
9.0,18.27,,,2222463.0,1637401887.6503472,1
9.0,20.74,,,,1637401887.6697917,1
9.0,23.935,,,2222864.0,1637401887.6892362,1
9.0,26.54,,,,1637401887.7086806,1
9.0,28.39,,,2223667.0,1637401887.728125,1
9.0,31.03,,,,1637401887.7475696,1
9.0,37.065,1.273596,35.89,2223515.0,1637401887.7670138,1
9.0,44.07,,,,1637401887.7864583,1
9.0,47.92,,,2222574.0,1637401887.8059027,1
9.0,50.26,,,,1637401887.8253472,1
9.0,50.97,,,2221587.0,1637401887.8447917,1
9.0,50.37,,,,1637401887.864236,1
9.0,50.14,,,2221913.0,1637401887.8836806,1
9.0,50.28,,,,1637401887.903125,1
9.0,50.67,,,2223620.0,1637401887.9225695,1
9.0,50.56,,,,1637401887.942014,1
9.0,50.04,,,2223249.0,1637401887.9614584,1
9.0,49.25,,,,1637401887.9809027,1
9.0,47.81,1.267191,35.89,2222544.0,1637401888.0003471,1
9.0,46.4,,,,1637401888.0197916,1
9.0,45.85,,,2221700.0,1637401888.039236,1
9.0,45.84,,,,1637401888.0586805,1
9.0,46.39,,,2218726.0,1637401888.078125,1
9.0,47.269999999999996,,,,1637401888.0975695,1
9.0,46.44,,,2215872.0,1637401888.117014,1
9.0,43.81,,,,1637401888.1364584,1
9.0,39.56,,,2212292.0,1637401888.1559029,1
9.0,31.5,,,,1637401888.1753473,1
9.0,23.58,,,2217266.0,1637401888.1947916,1
9.0,18.94,,,,1637401888.214236,1
9.0,14.36,,,2214860.0,1637401888.2336805,1
9.0,5.885,1.263348,35.83,,1637401888.253125,1
9.0,-5.46,,,2211502.0,1637401888.2725694,1
9.0,-14.83,,,,1637401888.292014,1
9.0,-24.83,,,2215732.0,1637401888.3114583,1
9.0,-39.245000000000005,,,,1637401888.3309028,1
9.0,-51.69,,,2218879.0,1637401888.3503473,1
9.0,-58.14,,,,1637401888.3697917,1
9.0,-63.02,,,,1637401888.3892362,1
9.0,-67.035,,,2222034.0,1637401888.4086804,1
9.0,-67.99,,,,1637401888.428125,1
9.0,-67.15,,,2222656.0,1637401888.4475694,1
9.0,-65.87,,,,1637401888.4670138,1
9.0,-64.245,,,2223841.0,1637401888.4864583,1
9.0,-63.21,1.260786,35.83,,1637401888.5059028,1
9.0,-62.55,,,2225050.0,1637401888.5253472,1
9.0,-61.5,,,,1637401888.5447917,1
9.0,-58.775,,,2229011.0,1637401888.5642362,1
9.0,-55.27,,,,1637401888.5836806,1
9.0,-52.96,,,2230633.0,1637401888.603125,1
9.0,-50.97,,,,1637401888.6225696,1
9.0,-48.504999999999995,,,2232331.0,1637401888.6420138,1
9.0,-45.81,,,,1637401888.6614583,1
9.0,-43.31,,,2230728.0,1637401888.6809027,1
9.0,-40.14,,,,1637401888.7003472,1
9.0,-35.099999999999994,,,2229016.0,1637401888.7197917,1
9.0,-31.59,,,,1637401888.739236,1
9.0,-31.5,1.276157,35.83,2239280.0,1637401888.7586806,1
9.0,-33.58,,,,1637401888.778125,1
9.0,-40.09,,,2263245.0,1637401888.7975695,1
9.0,-47.25,,,,1637401888.817014,1
9.0,-49.79,,,2276582.0,1637401888.8364584,1
9.0,-48.63,,,,1637401888.8559027,1
9.0,-37.78,,,2281350.0,1637401888.8753471,1
9.0,-19.37,,,,1637401888.8947916,1
9.0,-5.02,,,2279307.0,1637401888.914236,1
9.0,8.13,,,,1637401888.9336805,1
9.0,18.46,,,2274822.0,1637401888.953125,1
9.0,27.380000000000003,,,,1637401888.9725695,1
9.0,31.36,,,2270315.0,1637401888.992014,1
9.0,32.35,1.278719,35.83,,1637401889.0114584,1
9.0,32.83,,,2266783.0,1637401889.0309029,1
9.0,32.644999999999996,,,,1637401889.0503473,1
9.0,31.32,,,2265402.0,1637401889.0697916,1
9.0,29.95,,,,1637401889.089236,1
9.0,28.67,,,2264319.0,1637401889.1086805,1
9.0,27.69,,,,1637401889.128125,1
9.0,27.53,,,2262798.0,1637401889.1475694,1
9.0,27.5,,,,1637401889.167014,1
9.0,27.13,,,2261619.0,1637401889.1864583,1
9.0,25.759999999999998,,,,1637401889.2059028,1
9.0,23.76,,,2260061.0,1637401889.2253473,1
9.0,22.07,,,,1637401889.2447917,1
9.0,20.02,1.271034,35.79,2258448.0,1637401889.2642362,1
9.0,15.975000000000001,,,,1637401889.2836804,1
9.0,11.23,,,2256640.0,1637401889.303125,1
9.0,8.16,,,,1637401889.3225694,1
9.0,5.66,,,,1637401889.3420138,1
9.0,3.4299999999999997,,,2255462.0,1637401889.3614583,1
9.0,2.3,,,,1637401889.3809028,1
9.0,1.78,,,2255121.0,1637401889.4003472,1
9.0,1.14,,,,1637401889.4197917,1
9.0,-0.13999999999999999,,,2254267.0,1637401889.4392362,1
9.0,-1.74,,,,1637401889.4586806,1
9.0,-3.16,,,2253563.0,1637401889.478125,1
9.0,-4.94,,,2251409.0,1637401889.4975696,1
9.0,-8.215,1.271034,35.79,,1637401889.5170138,1
9.0,-11.36,,,2248948.0,1637401889.5364583,1
9.0,-12.75,,,,1637401889.5559027,1
9.0,-13.45,,,,1637401889.5753472,1
9.0,-13.81,,,2246873.0,1637401889.5947917,1
9.0,-14.94,,,,1637401889.614236,1
9.0,-17.06,,,2245488.0,1637401889.6336806,1
9.0,-20.44,,,,1637401889.653125,1
9.0,-26.905,,,2244087.0,1637401889.6725695,1
9.0,-32.71,,,,1637401889.692014,1
9.0,-34.33,,,2243808.0,1637401889.7114584,1
9.0,-32.91,,,,1637401889.7309027,1
9.0,-23.35,1.272315,35.79,2242344.0,1637401889.7503471,1
9.0,-6.94,,,,1637401889.7697916,1
9.0,6.71,,,2241963.0,1637401889.789236,1
9.0,20.24,,,,1637401889.8086805,1
9.0,31.86,,,2241318.0,1637401889.828125,1
9.0,42.57,,,,1637401889.8475695,1
9.0,46.23,,,2240594.0,1637401889.867014,1
9.0,45.14,,,,1637401889.8864584,1
9.0,42.72,,,2239860.0,1637401889.9059029,1
9.0,38.269999999999996,,,,1637401889.9253473,1
9.0,33.56,,,2239832.0,1637401889.9447916,1
9.0,30.17,,,,1637401889.964236,1
9.0,26.57,,,2239447.0,1637401889.9836805,1
9.0,21.299999999999997,1.273596,35.79,,1637401890.003125,1
9.0,16.87,,,2239582.0,1637401890.0225694,1
9.0,14.69,,,,1637401890.042014,1
9.0,13.01,,,2239177.0,1637401890.0614583,1
9.0,11.215,,,,1637401890.0809028,1
9.0,10.11,,,2239561.0,1637401890.1003473,1
9.0,9.82,,,,1637401890.1197917,1
9.0,9.65,,,2240102.0,1637401890.1392362,1
9.0,8.754999999999999,,,,1637401890.1586804,1
9.0,6.5,,,,1637401890.178125,1
9.0,4.06,,,2240155.0,1637401890.1975694,1
9.0,1.36,,,,1637401890.2170138,1
9.0,-2.175,,,2240698.0,1637401890.2364583,1
9.0,-4.65,1.26591,35.77,,1637401890.2559028,1
9.0,-5.8,,,2241097.0,1637401890.2753472,1
9.0,-7.04,,,2240837.0,1637401890.2947917,1
9.0,-9.885,,,,1637401890.3142362,1
9.0,-13.85,,,2240663.0,1637401890.3336806,1
9.0,-16.91,,,,1637401890.353125,1
9.0,-19.84,,,2243362.0,1637401890.3725696,1
9.0,-23.0,,,,1637401890.3920138,1
9.0,-24.4,,,2246118.0,1637401890.4114583,1
9.0,-24.13,,,,1637401890.4309027,1
9.0,-23.31,,,2247301.0,1637401890.4503472,1
9.0,-22.42,,,,1637401890.4697917,1
9.0,-23.49,,,2247308.0,1637401890.489236,1
9.0,-26.14,1.258224,35.77,,1637401890.5086806,1
9.0,-29.85,,,2246418.0,1637401890.528125,1
9.0,-34.44,,,,1637401890.5475695,1
9.0,-33.96,,,2244871.0,1637401890.567014,1
9.0,-28.22,,,,1637401890.5864584,1
9.0,-18.41,,,2243379.0,1637401890.6059027,1
9.0,0.6099999999999999,,,,1637401890.6253471,1
9.0,18.46,,,,1637401890.6447916,1
9.0,26.57,,,2241612.0,1637401890.664236,1
9.0,30.94,,,,1637401890.6836805,1
9.0,32.05,,,2240824.0,1637401890.703125,1
9.0,29.875,,,2240231.0,1637401890.7225695,1
9.0,26.4,,,,1637401890.742014,1
9.0,24.18,1.267191,35.77,2240753.0,1637401890.7614584,1
9.0,22.25,,,,1637401890.7809029,1
9.0,19.744999999999997,,,2241206.0,1637401890.8003473,1
9.0,17.43,,,,1637401890.8197916,1
9.0,16.0,,,,1637401890.839236,1
9.0,14.7,,,2241514.0,1637401890.8586805,1
9.0,13.11,,,,1637401890.878125,1
9.0,12.0,,,2243632.0,1637401890.8975694,1
9.0,11.63,,,,1637401890.917014,1
9.0,11.48,,,2247382.0,1637401890.9364583,1
9.0,11.14,,,,1637401890.9559028,1
9.0,9.82,,,2253066.0,1637401890.9753473,1
9.0,7.8,,,,1637401890.9947917,1
9.0,4.72,1.263348,35.77,2257172.0,1637401891.0142362,1
9.0,-1.495,,,,1637401891.0336804,1
9.0,-8.16,,,2258208.0,1637401891.053125,1
9.0,-11.83,,,,1637401891.0725694,1
9.0,-14.08,,,2273744.0,1637401891.0920138,1
9.0,-13.754999999999999,,,,1637401891.1114583,1
9.0,-10.02,,,2279695.0,1637401891.1309028,1
9.0,-6.27,,,,1637401891.1503472,1
9.0,-2.64,,,2281379.0,1637401891.1697917,1
9.0,1.055,,,,1637401891.1892362,1
9.0,2.77,,,2278545.0,1637401891.2086806,1
9.0,3.09,,,,1637401891.228125,1
9.0,3.18,,,2276064.0,1637401891.2475696,1
9.0,2.6399999999999997,1.247977,35.81,,1637401891.2670138,1
9.0,0.62,,,2272766.0,1637401891.2864583,1
9.0,-2.16,,,,1637401891.3059027,1
9.0,-5.9,,,2269280.0,1637401891.3253472,1
9.0,-11.885,,,,1637401891.3447917,1
9.0,-16.16,,,2266519.0,1637401891.364236,1
9.0,-16.55,,,,1637401891.3836806,1
9.0,-14.52,,,2265385.0,1637401891.403125,1
9.0,-7.145,,,,1637401891.4225695,1
9.0,2.5,,,2265712.0,1637401891.442014,1
9.0,8.56,,,,1637401891.4614584,1
9.0,13.13,,,,1637401891.4809027,1
9.0,16.325,1.241572,35.81,2265976.0,1637401891.5003471,1
9.0,16.55,,,,1637401891.5197916,1
9.0,15.44,,,2266079.0,1637401891.539236,1
9.0,13.71,,,,1637401891.5586805,1
9.0,11.39,,,2266201.0,1637401891.578125,1
9.0,6.935,,,,1637401891.5975695,1
9.0,2.13,,,2267007.0,1637401891.617014,1
9.0,-0.6,,,,1637401891.6364584,1
9.0,-2.44,,,2267499.0,1637401891.6559029,1
9.0,-3.115,,,,1637401891.6753473,1
9.0,-2.14,,,2268001.0,1637401891.6947916,1
9.0,-1.06,,,,1637401891.714236,1
9.0,-0.27,,,2267664.0,1637401891.7336805,1
9.0,-0.425,1.251819,35.81,,1637401891.753125,1
9.0,-2.05,,,2267495.0,1637401891.7725694,1
9.0,-3.78,,,,1637401891.792014,1
9.0,-5.6,,,2266513.0,1637401891.8114583,1
9.0,-7.9799999999999995,,,,1637401891.8309028,1
9.0,-9.89,,,2266062.0,1637401891.8503473,1
9.0,-10.92,,,,1637401891.8697917,1
9.0,-11.85,,,2265354.0,1637401891.8892362,1
9.0,-13.12,,,,1637401891.9086804,1
9.0,-14.52,,,2265655.0,1637401891.928125,1
9.0,-15.85,,,,1637401891.9475694,1
9.0,-17.64,,,2266335.0,1637401891.9670138,1
9.0,-21.025,,,,1637401891.9864583,1
9.0,-24.5,1.250539,35.81,2266443.0,1637401892.0059028,1
9.0,-26.41,,,,1637401892.0253472,1
9.0,-27.86,,,2265756.0,1637401892.0447917,1
9.0,-29.37,,,,1637401892.0642362,1
9.0,-30.62,,,2265019.0,1637401892.0836806,1
9.0,-31.58,,,,1637401892.103125,1
9.0,-32.9,,,2264130.0,1637401892.1225696,1
9.0,-36.545,,,,1637401892.1420138,1
9.0,-42.8,,,2263300.0,1637401892.1614583,1
9.0,-48.9,,,,1637401892.1809027,1
9.0,-56.08,,,2262666.0,1637401892.2003472,1
9.0,-67.09,,,,1637401892.2197917,1
9.0,-76.44,,,2262359.0,1637401892.239236,1
9.0,-80.84,1.242853,35.79,,1637401892.2586806,1
9.0,-83.64,,,2261894.0,1637401892.278125,1
9.0,-84.435,,,,1637401892.2975695,1
9.0,-81.36,,,2261725.0,1637401892.317014,1
9.0,-76.54,,,,1637401892.3364584,1
9.0,-69.9,,,,1637401892.3559027,1
9.0,-57.47,,,2262325.0,1637401892.3753471,1
9.0,-43.63,,,,1637401892.3947916,1
9.0,-33.46,,,2262727.0,1637401892.414236,1
9.0,-22.14,,,,1637401892.4336805,1
9.0,-9.35,,,2262999.0,1637401892.453125,1
9.0,12.215,,,,1637401892.4725695,1
9.0,34.17,,,2263645.0,1637401892.492014,1
9.0,47.27,1.237729,35.79,,1637401892.5114584,1
9.0,58.11,,,2264035.0,1637401892.5309029,1
9.0,68.95500000000001,,,2264630.0,1637401892.5503473,1
9.0,74.49,,,,1637401892.5697916,1
9.0,75.22,,,2265491.0,1637401892.589236,1
9.0,74.47,,,,1637401892.6086805,1
9.0,72.275,,,2265553.0,1637401892.628125,1
9.0,70.83,,,,1637401892.6475694,1
9.0,71.0,,,2265621.0,1637401892.667014,1
9.0,71.88,,,,1637401892.6864583,1
9.0,73.275,,,2267042.0,1637401892.7059028,1
9.0,73.26,,,,1637401892.7253473,1
9.0,71.82,,,,1637401892.7447917,1
9.0,69.37,1.2531,35.79,2268069.0,1637401892.7642362,1
9.0,64.655,,,,1637401892.7836804,1
9.0,59.96,,,2268900.0,1637401892.803125,1
9.0,57.45,,,,1637401892.8225694,1
9.0,55.66,,,2269311.0,1637401892.8420138,1
9.0,54.36,,,,1637401892.8614583,1
9.0,53.87,,,2270244.0,1637401892.8809028,1
9.0,53.48,,,,1637401892.9003472,1
9.0,52.64,,,2270578.0,1637401892.9197917,1
9.0,50.335,,,,1637401892.9392362,1
9.0,47.52,,,2270334.0,1637401892.9586806,1
9.0,45.9,,,,1637401892.978125,1
9.0,44.81,,,2272329.0,1637401892.9975696,1
9.0,44.2,1.256943,35.79,,1637401893.0170138,1
9.0,43.79,,,2274889.0,1637401893.0364583,1
9.0,42.98,,,,1637401893.0559027,1
9.0,41.51,,,2274889.0,1637401893.0753472,1
9.0,38.47,,,,1637401893.0947917,1
9.0,35.65,,,2275688.0,1637401893.114236,1
9.0,34.39,,,,1637401893.1336806,1
9.0,33.56,,,2275805.0,1637401893.153125,1
9.0,32.08,,,,1637401893.1725695,1
9.0,29.3,,,2276045.0,1637401893.192014,1
9.0,26.36,,,,1637401893.2114584,1
9.0,22.94,,,2276482.0,1637401893.2309027,1
9.0,18.189999999999998,1.26591,35.79,,1637401893.2503471,1
9.0,14.5,,,2276621.0,1637401893.2697916,1
9.0,12.48,,,,1637401893.289236,1
9.0,10.14,,,2278490.0,1637401893.3086805,1
9.0,7.03,,,,1637401893.328125,1
9.0,0.6600000000000001,,,2280793.0,1637401893.3475695,1
9.0,-6.31,,,,1637401893.367014,1
9.0,-10.28,,,2281640.0,1637401893.3864584,1
9.0,-13.11,,,,1637401893.4059029,1
9.0,-14.774999999999999,,,2282586.0,1637401893.4253473,1
9.0,-14.34,,,,1637401893.4447916,1
9.0,-13.07,,,2282648.0,1637401893.464236,1
9.0,-11.31,,,,1637401893.4836805,1
9.0,-8.14,1.256943,35.79,2280463.0,1637401893.503125,1
9.0,-5.06,,,,1637401893.5225694,1
9.0,-3.53,,,2277562.0,1637401893.542014,1
9.0,-2.74,,,,1637401893.5614583,1
9.0,-3.335,,,,1637401893.5809028,1
9.0,-5.78,,,2274682.0,1637401893.6003473,1
9.0,-8.58,,,,1637401893.6197917,1
9.0,-12.16,,,2275268.0,1637401893.6392362,1
9.0,-18.71,,,,1637401893.6586804,1
9.0,-25.78,,,2276699.0,1637401893.678125,1
9.0,-30.19,,,,1637401893.6975694,1
9.0,-33.86,,,2276429.0,1637401893.7170138,1
9.0,-37.489999999999995,,,,1637401893.7364583,1
9.0,-39.58,1.260786,35.79,2274941.0,1637401893.7559028,1
9.0,-40.58,,,,1637401893.7753472,1
9.0,-41.8,,,2272602.0,1637401893.7947917,1
9.0,-44.45,,,,1637401893.8142362,1
9.0,-47.61,,,2269862.0,1637401893.8336806,1
9.0,-49.58,,,,1637401893.853125,1
9.0,-51.03,,,2266599.0,1637401893.8725696,1
9.0,-51.629999999999995,,,,1637401893.8920138,1
9.0,-50.36,,,2265714.0,1637401893.9114583,1
9.0,-48.27,,,,1637401893.9309027,1
9.0,-45.31,,,2266375.0,1637401893.9503472,1
9.0,-39.415,,,,1637401893.9697917,1
9.0,-32.27,,,2275568.0,1637401893.989236,1
9.0,-26.71,1.268472,35.79,,1637401894.0086806,1
9.0,-20.69,,,2279568.0,1637401894.028125,1
9.0,-11.335,,,,1637401894.0475695,1
9.0,-2.55,,,2281865.0,1637401894.067014,1
9.0,2.36,,,,1637401894.0864584,1
9.0,6.33,,,,1637401894.1059027,1
9.0,10.465,,,2280988.0,1637401894.1253471,1
9.0,12.78,,,,1637401894.1447916,1
9.0,13.05,,,2280091.0,1637401894.164236,1
9.0,12.32,,,,1637401894.1836805,1
9.0,10.73,,,2283365.0,1637401894.203125,1
9.0,7.695,,,,1637401894.2225695,1
9.0,5.16,,,2304604.0,1637401894.242014,1
9.0,4.16,1.271034,35.79,,1637401894.2614584,1
9.0,3.52,,,2318869.0,1637401894.2809029,1
9.0,2.435,,,,1637401894.3003473,1
9.0,0.81,,,2329283.0,1637401894.3197916,1
9.0,-0.48,,,,1637401894.339236,1
9.0,-1.66,,,2324073.0,1637401894.3586805,1
9.0,-2.69,,,,1637401894.378125,1
9.0,-2.76,,,2317362.0,1637401894.3975694,1
9.0,-2.18,,,,1637401894.417014,1
9.0,-1.24,,,2314116.0,1637401894.4364583,1
9.0,0.335,,,,1637401894.4559028,1
9.0,1.26,,,2311362.0,1637401894.4753473,1
9.0,0.9,,,,1637401894.4947917,1
9.0,-0.38,1.26591,35.79,2308605.0,1637401894.5142362,1
9.0,-3.8949999999999996,,,,1637401894.5336804,1
9.0,-8.25,,,2306544.0,1637401894.553125,1
9.0,-11.07,,,,1637401894.5725694,1
9.0,-13.33,,,2303118.0,1637401894.5920138,1
9.0,-15.055,,,,1637401894.6114583,1
9.0,-14.99,,,2300976.0,1637401894.6309028,1
9.0,-13.99,,,,1637401894.6503472,1
9.0,-12.63,,,2300518.0,1637401894.6697917,1
9.0,-10.27,,,,1637401894.6892362,1
9.0,-7.79,,,2300220.0,1637401894.7086806,1
9.0,-6.06,,,,1637401894.728125,1
9.0,-4.25,,,2299434.0,1637401894.7475696,1
9.0,-1.345,1.274876,35.79,,1637401894.7670138,1
9.0,1.7,,,2298589.0,1637401894.7864583,1
9.0,3.74,,,,1637401894.8059027,1
9.0,5.66,,,2297424.0,1637401894.8253472,1
9.0,7.765,,,,1637401894.8447917,1
9.0,8.61,,,2296473.0,1637401894.864236,1
9.0,8.1,,,,1637401894.8836806,1
9.0,6.79,,,2296878.0,1637401894.903125,1
9.0,3.9699999999999998,,,,1637401894.9225695,1
9.0,1.27,,,,1637401894.942014,1
9.0,0.14,,,2297987.0,1637401894.9614584,1
9.0,-0.37,,,,1637401894.9809027,1
9.0,-0.685,1.274876,35.79,2299403.0,1637401895.0003471,1
9.0,-1.54,,,,1637401895.0197916,1
9.0,-2.73,,,2299717.0,1637401895.039236,1
9.0,-4.09,,,,1637401895.0586805,1
9.0,-5.05,,,2300347.0,1637401895.078125,1
9.0,-4.62,,,,1637401895.0975695,1
9.0,-2.35,,,2300893.0,1637401895.117014,1
9.0,-0.29,,,,1637401895.1364584,1
9.0,1.46,,,2300794.0,1637401895.1559029,1
9.0,2.35,,,,1637401895.1753473,1
9.0,1.27,,,2301551.0,1637401895.1947916,1
9.0,-0.37,,,,1637401895.214236,1
9.0,-2.08,,,2301215.0,1637401895.2336805,1
9.0,-3.685,1.272315,35.77,,1637401895.253125,1
9.0,-3.99,,,2299594.0,1637401895.2725694,1
9.0,-3.76,,,,1637401895.292014,1
9.0,-3.85,,,2298103.0,1637401895.3114583,1
9.0,-5.35,,,,1637401895.3309028,1
9.0,-7.95,,,2296779.0,1637401895.3503473,1
9.0,-9.69,,,,1637401895.3697917,1
9.0,-10.91,,,2295779.0,1637401895.3892362,1
9.0,-11.575,,,,1637401895.4086804,1
9.0,-11.31,,,2295166.0,1637401895.428125,1
9.0,-10.65,,,,1637401895.4475694,1
9.0,-9.55,,,2294662.0,1637401895.4670138,1
9.0,-6.98,,,,1637401895.4864583,1
9.0,-3.96,1.267191,35.77,,1637401895.5059028,1
9.0,-2.1,,,2294403.0,1637401895.5253472,1
9.0,-0.59,,,,1637401895.5447917,1
9.0,1.26,,,2294236.0,1637401895.5642362,1
9.0,3.03,,,,1637401895.5836806,1
9.0,4.07,,,2293772.0,1637401895.603125,1
9.0,4.67,,,,1637401895.6225696,1
9.0,4.3100000000000005,,,2293233.0,1637401895.6420138,1
9.0,3.1,,,,1637401895.6614583,1
9.0,2.38,,,2293201.0,1637401895.6809027,1
9.0,2.14,,,,1637401895.7003472,1
9.0,2.685,,,2293351.0,1637401895.7197917,1
9.0,3.35,,,,1637401895.739236,1
9.0,3.24,1.26591,35.77,2293003.0,1637401895.7586806,1
9.0,2.5,,,,1637401895.778125,1
9.0,0.7200000000000001,,,2292933.0,1637401895.7975695,1
9.0,-0.76,,,,1637401895.817014,1
9.0,-1.05,,,2293092.0,1637401895.8364584,1
9.0,-0.8,,,,1637401895.8559027,1
9.0,-0.32,,,2293338.0,1637401895.8753471,1
9.0,-0.76,,,,1637401895.8947916,1
9.0,-1.98,,,2293494.0,1637401895.914236,1
9.0,-3.6,,,,1637401895.9336805,1
9.0,-5.12,,,2293888.0,1637401895.953125,1
9.0,-6.09,,,,1637401895.9725695,1
9.0,-5.46,,,2294094.0,1637401895.992014,1
9.0,-4.32,1.268472,35.77,,1637401896.0114584,1
9.0,-3.1,,,2293834.0,1637401896.0309029,1
9.0,-1.8,,,,1637401896.0503473,1
9.0,-1.36,,,2292465.0,1637401896.0697916,1
9.0,-1.68,,,,1637401896.089236,1
9.0,-2.41,,,2290876.0,1637401896.1086805,1
9.0,-4.01,,,,1637401896.128125,1
9.0,-5.55,,,,1637401896.1475694,1
9.0,-6.12,,,2289894.0,1637401896.167014,1
9.0,-6.13,,,,1637401896.1864583,1
9.0,-5.1850000000000005,,,2288822.0,1637401896.2059028,1
9.0,-3.87,,,,1637401896.2253473,1
9.0,-3.2,,,2288219.0,1637401896.2447917,1
9.0,-2.89,1.268472,35.77,,1637401896.2642362,1
9.0,-2.995,,,2287182.0,1637401896.2836804,1
9.0,-3.1,,,,1637401896.303125,1
9.0,-2.66,,,2285826.0,1637401896.3225694,1
9.0,-1.58,,,,1637401896.3420138,1
9.0,1.3800000000000001,,,2285073.0,1637401896.3614583,1
9.0,4.98,,,,1637401896.3809028,1
9.0,7.06,,,2284703.0,1637401896.4003472,1
9.0,8.46,,,,1637401896.4197917,1
9.0,9.105,,,2284274.0,1637401896.4392362,1
9.0,9.05,,,,1637401896.4586806,1
9.0,9.11,,,2285075.0,1637401896.478125,1
9.0,9.31,,,,1637401896.4975696,1
9.0,8.850000000000001,1.264629,35.77,2285551.0,1637401896.5170138,1
9.0,6.82,,,,1637401896.5364583,1
9.0,4.58,,,2288330.0,1637401896.5559027,1
9.0,2.46,,,,1637401896.5753472,1
9.0,1.2650000000000001,,,2288818.0,1637401896.5947917,1
9.0,2.65,,,,1637401896.614236,1
9.0,4.77,,,2289626.0,1637401896.6336806,1
9.0,7.12,,,,1637401896.653125,1
9.0,10.24,,,2290119.0,1637401896.6725695,1
9.0,12.63,,,,1637401896.692014,1
9.0,13.57,,,2289966.0,1637401896.7114584,1
9.0,13.81,,,,1637401896.7309027,1
9.0,12.455,1.263348,35.77,,1637401896.7503471,1
9.0,9.73,,,2289762.0,1637401896.7697916,1
9.0,7.57,,,,1637401896.789236,1
9.0,5.55,,,2289585.0,1637401896.8086805,1
9.0,3.8,,,,1637401896.828125,1
9.0,1.47,,,2290044.0,1637401896.8475695,1
9.0,-0.75,,,,1637401896.867014,1
9.0,-2.1,,,2291325.0,1637401896.8864584,1
9.0,-3.22,,,,1637401896.9059029,1
9.0,-4.225,,,2292055.0,1637401896.9253473,1
9.0,-4.55,,,,1637401896.9447916,1
9.0,-4.33,,,2292049.0,1637401896.964236,1
9.0,-3.75,,,,1637401896.9836805,1
9.0,-2.12,1.269753,35.77,2290679.0,1637401897.003125,1
9.0,0.1,,,,1637401897.0225694,1
9.0,1.64,,,2296632.0,1637401897.042014,1
9.0,2.91,,,,1637401897.0614583,1
9.0,3.775,,,2315399.0,1637401897.0809028,1
9.0,3.49,,,,1637401897.1003473,1
9.0,2.75,,,2324796.0,1637401897.1197917,1
9.0,1.81,,,,1637401897.1392362,1
9.0,0.475,,,2328208.0,1637401897.1586804,1
9.0,-0.58,,,,1637401897.178125,1
9.0,-1.07,,,2328728.0,1637401897.1975694,1
9.0,-1.39,,,,1637401897.2170138,1
9.0,-1.4100000000000001,,,2326758.0,1637401897.2364583,1
9.0,-1.01,1.271034,35.77,,1637401897.2559028,1
9.0,-0.65,,,2323532.0,1637401897.2753472,1
9.0,-0.44,,,,1637401897.2947917,1
9.0,-0.6699999999999999,,,2320563.0,1637401897.3142362,1
9.0,-1.3,,,,1637401897.3336806,1
9.0,-1.75,,,2318645.0,1637401897.353125,1
9.0,-2.11,,,,1637401897.3725696,1
9.0,-2.6399999999999997,,,2317933.0,1637401897.3920138,1
9.0,-3.34,,,,1637401897.4114583,1
9.0,-3.8,,,2316976.0,1637401897.4309027,1
9.0,-3.94,,,,1637401897.4503472,1
9.0,-2.7800000000000002,,,2316346.0,1637401897.4697917,1
9.0,-0.13,,,,1637401897.489236,1
9.0,2.13,1.263348,35.77,,1637401897.5086806,1
9.0,4.13,,,2315894.0,1637401897.528125,1
9.0,5.46,,,,1637401897.5475695,1
9.0,4.75,,,2315414.0,1637401897.567014,1
9.0,3.21,,,,1637401897.5864584,1
9.0,1.32,,,2315090.0,1637401897.6059027,1
9.0,-1.09,,,,1637401897.6253471,1
9.0,-2.36,,,2315218.0,1637401897.6447916,1
9.0,-2.29,,,,1637401897.664236,1
9.0,-1.7,,,2315218.0,1637401897.6836805,1
9.0,-0.9,,,,1637401897.703125,1
9.0,-0.09999999999999999,,,2315342.0,1637401897.7225695,1
9.0,-0.23,,,,1637401897.742014,1
9.0,-0.95,1.260786,35.77,2314681.0,1637401897.7614584,1
9.0,-1.91,,,,1637401897.7809029,1
9.0,-3.11,,,2313552.0,1637401897.8003473,1
9.0,-3.59,,,,1637401897.8197916,1
9.0,-3.31,,,2311996.0,1637401897.839236,1
9.0,-2.67,,,,1637401897.8586805,1
9.0,-1.32,,,2310618.0,1637401897.878125,1
9.0,-0.05,,,,1637401897.8975694,1
9.0,0.45,,,2310026.0,1637401897.917014,1
9.0,0.58,,,,1637401897.9364583,1
9.0,0.36,,,2309930.0,1637401897.9559028,1
9.0,0.4,,,,1637401897.9753473,1
9.0,0.9,,,2310219.0,1637401897.9947917,1
9.0,1.69,1.263348,35.77,,1637401898.0142362,1
9.0,2.6399999999999997,,,2309839.0,1637401898.0336804,1
9.0,2.72,,,,1637401898.053125,1
9.0,2.17,,,2309541.0,1637401898.0725694,1
9.0,1.44,,,,1637401898.0920138,1
9.0,0.545,,,2308933.0,1637401898.1114583,1
9.0,-0.02,,,,1637401898.1309028,1
9.0,-0.34,,,2308429.0,1637401898.1503472,1
9.0,-0.78,,,,1637401898.1697917,1
9.0,-1.65,,,2308082.0,1637401898.1892362,1
9.0,-2.66,,,,1637401898.2086806,1
9.0,-3.41,,,,1637401898.228125,1
9.0,-4.22,,,2308101.0,1637401898.2475696,1
9.0,-5.335,1.260786,35.77,,1637401898.2670138,1
9.0,-5.86,,,2308230.0,1637401898.2864583,1
9.0,-5.55,,,,1637401898.3059027,1
9.0,-4.74,,,2308347.0,1637401898.3253472,1
9.0,-3.06,,,,1637401898.3447917,1
9.0,-1.54,,,2308645.0,1637401898.364236,1
9.0,-0.9,,,,1637401898.3836806,1
9.0,-0.6,,,2308989.0,1637401898.403125,1
9.0,-0.625,,,,1637401898.4225695,1
9.0,-0.96,,,2309423.0,1637401898.442014,1
9.0,-1.26,,,,1637401898.4614584,1
9.0,-1.45,,,2309738.0,1637401898.4809027,1
9.0,-1.2999999999999998,1.258224,35.77,,1637401898.5003471,1
9.0,-0.63,,,2310129.0,1637401898.5197916,1
9.0,0.01,,,,1637401898.539236,1
9.0,0.59,,,2310060.0,1637401898.5586805,1
9.0,0.95,,,,1637401898.578125,1
9.0,0.91,,,2308617.0,1637401898.5975695,1
9.0,0.41,,,,1637401898.617014,1
9.0,0.04,,,2307008.0,1637401898.6364584,1
9.0,-0.13,,,,1637401898.6559029,1
9.0,0.29500000000000004,,,2305869.0,1637401898.6753473,1
9.0,1.33,,,,1637401898.6947916,1
9.0,2.07,,,2305086.0,1637401898.714236,1
9.0,2.51,,,,1637401898.7336805,1
9.0,2.21,1.254381,35.77,2304634.0,1637401898.753125,1
9.0,1.15,,,,1637401898.7725694,1
9.0,0.37,,,2304271.0,1637401898.792014,1
9.0,-0.07,,,,1637401898.8114583,1
9.0,0.325,,,2303747.0,1637401898.8309028,1
9.0,1.73,,,,1637401898.8503473,1
9.0,3.06,,,2303671.0,1637401898.8697917,1
9.0,4.39,,,,1637401898.8892362,1
9.0,5.855,,,,1637401898.9086804,1
9.0,6.55,,,2303461.0,1637401898.928125,1
9.0,6.57,,,,1637401898.9475694,1
9.0,6.43,,,2303123.0,1637401898.9670138,1
9.0,6.195,,,,1637401898.9864583,1
9.0,5.92,1.256943,35.77,2301277.0,1637401899.0059028,1
9.0,5.56,,,,1637401899.0253472,1
9.0,5.04,,,2299727.0,1637401899.0447917,1
9.0,4.265000000000001,,,,1637401899.0642362,1
9.0,4.08,,,2298374.0,1637401899.0836806,1
9.0,4.53,,,,1637401899.103125,1
9.0,5.28,,,2297586.0,1637401899.1225696,1
9.0,6.3149999999999995,,,,1637401899.1420138,1
9.0,6.81,,,2297084.0,1637401899.1614583,1
9.0,6.81,,,,1637401899.1809027,1
9.0,6.84,,,2296682.0,1637401899.2003472,1
9.0,7.415,,,,1637401899.2197917,1
9.0,8.56,,,2296890.0,1637401899.239236,1
9.0,9.28,1.269753,35.77,,1637401899.2586806,1
9.0,9.45,,,2296849.0,1637401899.278125,1
9.0,7.67,,,,1637401899.2975695,1
9.0,3.58,,,2299418.0,1637401899.317014,1
9.0,-0.35,,,,1637401899.3364584,1
9.0,-4.56,,,2302013.0,1637401899.3559027,1
9.0,-9.905000000000001,,,,1637401899.3753471,1
9.0,-13.17,,,2304657.0,1637401899.3947916,1
9.0,-13.69,,,,1637401899.414236,1
9.0,-13.16,,,2304744.0,1637401899.4336805,1
9.0,-11.98,,,,1637401899.453125,1
9.0,-9.89,,,2304149.0,1637401899.4725695,1
9.0,-8.24,,,,1637401899.492014,1
9.0,-7.7,1.258224,35.77,2303412.0,1637401899.5114584,1
9.0,-7.58,,,,1637401899.5309029,1
9.0,-7.87,,,,1637401899.5503473,1
9.0,-8.13,,,2302654.0,1637401899.5697916,1
9.0,-7.93,,,2304100.0,1637401899.589236,1
9.0,-7.31,,,,1637401899.6086805,1
9.0,-5.76,,,,1637401899.628125,1
9.0,-4.09,,,2315941.0,1637401899.6475694,1
9.0,-3.17,,,,1637401899.667014,1
9.0,-2.39,,,2326336.0,1637401899.6864583,1
9.0,-1.1300000000000001,,,,1637401899.7059028,1
9.0,0.36,,,2331289.0,1637401899.7253473,1
9.0,1.31,,,,1637401899.7447917,1
9.0,1.96,1.259505,35.77,2330189.0,1637401899.7642362,1
9.0,2.1399999999999997,,,,1637401899.7836804,1
9.0,1.91,,,2326485.0,1637401899.803125,1
9.0,1.93,,,,1637401899.8225694,1
9.0,2.19,,,2324168.0,1637401899.8420138,1
9.0,2.645,,,,1637401899.8614583,1
9.0,2.4,,,2320458.0,1637401899.8809028,1
9.0,1.46,,,,1637401899.9003472,1
9.0,0.08,,,2318686.0,1637401899.9197917,1
9.0,-2.005,,,,1637401899.9392362,1
9.0,-3.2,,,2317704.0,1637401899.9586806,1
9.0,-3.12,,,,1637401899.978125,1
9.0,-2.49,,,2318247.0,1637401899.9975696,1
9.0,-1.075,1.258224,35.77,,1637401900.0170138,1
9.0,0.05,,,2317697.0,1637401900.0364583,1
9.0,0.32,,,,1637401900.0559027,1
9.0,0.13,,,2316305.0,1637401900.0753472,1
9.0,-0.83,,,,1637401900.0947917,1
9.0,-2.11,,,2317145.0,1637401900.114236,1
9.0,-2.95,,,,1637401900.1336806,1
9.0,-3.6,,,2318377.0,1637401900.153125,1
9.0,-4.02,,,,1637401900.1725695,1
9.0,-3.84,,,2319504.0,1637401900.192014,1
9.0,-3.43,,,,1637401900.2114584,1
9.0,-2.95,,,2318721.0,1637401900.2309027,1
9.0,-2.4,1.263348,35.77,,1637401900.2503471,1
9.0,-2.1,,,2318256.0,1637401900.2697916,1
9.0,-1.87,,,,1637401900.289236,1
9.0,-1.28,,,2318075.0,1637401900.3086805,1
9.0,-0.05,,,,1637401900.328125,1
9.0,3.41,,,2317841.0,1637401900.3475695,1
9.0,7.9,,,,1637401900.367014,1
9.0,10.73,,,2318123.0,1637401900.3864584,1
9.0,12.72,,,,1637401900.4059029,1
9.0,13.325,,,2319005.0,1637401900.4253473,1
9.0,12.09,,,,1637401900.4447916,1
9.0,11.03,,,2321097.0,1637401900.464236,1
9.0,10.75,,,,1637401900.4836805,1
9.0,12.8,1.263348,35.77,2326751.0,1637401900.503125,1
9.0,16.87,,,,1637401900.5225694,1
9.0,19.61,,,2338349.0,1637401900.542014,1
9.0,20.9,,,,1637401900.5614583,1
9.0,17.58,,,,1637401900.5809028,1
9.0,8.04,,,2344141.0,1637401900.6003473,1
9.0,-1.84,,,,1637401900.6197917,1
9.0,-13.18,,,2345844.0,1637401900.6392362,1
9.0,-29.935,,,,1637401900.6586804,1
9.0,-43.3,,,2344298.0,1637401900.678125,1
9.0,-48.27,,,,1637401900.6975694,1
9.0,-49.61,,,2342291.0,1637401900.7170138,1
9.0,-45.144999999999996,,,,1637401900.7364583,1
9.0,-36.92,1.263348,35.77,2342336.0,1637401900.7559028,1
9.0,-31.47,,,,1637401900.7753472,1
9.0,-27.79,,,2340913.0,1637401900.7947917,1
9.0,-26.95,,,,1637401900.8142362,1
9.0,-29.23,,,2338063.0,1637401900.8336806,1
9.0,-30.54,,,,1637401900.853125,1
9.0,-29.87,,,2336480.0,1637401900.8725696,1
9.0,-23.68,,,2335458.0,1637401900.8920138,1
9.0,-13.8,,,,1637401900.9114583,1
9.0,-6.94,,,,1637401900.9309027,1
9.0,-1.42,,,2333940.0,1637401900.9503472,1
9.0,3.21,,,,1637401900.9697917,1
9.0,5.12,,,2331342.0,1637401900.989236,1
9.0,5.67,1.254381,35.77,,1637401901.0086806,1
9.0,6.35,,,2328285.0,1637401901.028125,1
9.0,8.49,,,,1637401901.0475695,1
9.0,12.66,,,2325717.0,1637401901.067014,1
9.0,17.52,,,,1637401901.0864584,1
9.0,24.26,,,2324207.0,1637401901.1059027,1
9.0,37.245,,,,1637401901.1253471,1
9.0,50.99,,,2323003.0,1637401901.1447916,1
9.0,59.1,,,,1637401901.164236,1
9.0,65.67,,,2321821.0,1637401901.1836805,1
9.0,70.61,,,,1637401901.203125,1
9.0,75.10499999999999,,,2321113.0,1637401901.2225695,1
9.0,76.6,,,,1637401901.242014,1
9.0,74.87,1.256943,35.77,2319783.0,1637401901.2614584,1
9.0,70.36,,,,1637401901.2809029,1
9.0,57.665,,,2319078.0,1637401901.3003473,1
9.0,40.62,,,,1637401901.3197916,1
9.0,28.55,,,2318709.0,1637401901.339236,1
9.0,17.77,,,,1637401901.3586805,1
9.0,6.29,,,2318403.0,1637401901.378125,1
9.0,-0.35,,,,1637401901.3975694,1
9.0,-2.33,,,2318306.0,1637401901.417014,1
9.0,-3.22,,,,1637401901.4364583,1
9.0,-3.575,,,2320297.0,1637401901.4559028,1
9.0,-3.95,,,,1637401901.4753473,1
9.0,-4.84,,,2322179.0,1637401901.4947917,1
9.0,-6.54,1.255662,35.77,,1637401901.5142362,1
9.0,-10.645,,,2329022.0,1637401901.5336804,1
9.0,-15.43,,,,1637401901.553125,1
9.0,-18.21,,,2338494.0,1637401901.5725694,1
9.0,-20.22,,,,1637401901.5920138,1
9.0,-21.68,,,,1637401901.6114583,1
9.0,-22.26,,,2341344.0,1637401901.6309028,1
9.0,-22.53,,,,1637401901.6503472,1
9.0,-22.78,,,2339810.0,1637401901.6697917,1
9.0,-22.41,,,,1637401901.6892362,1
9.0,-20.31,,,2337590.0,1637401901.7086806,1
9.0,-17.51,,,,1637401901.728125,1
9.0,-14.01,,,2335949.0,1637401901.7475696,1
9.0,-9.04,1.250539,35.77,,1637401901.7670138,1
9.0,-5.77,,,2333898.0,1637401901.7864583,1
9.0,-5.01,,,,1637401901.8059027,1
9.0,-4.93,,,2334141.0,1637401901.8253472,1
9.0,-4.895,,,,1637401901.8447917,1
9.0,-3.91,,,2338335.0,1637401901.864236,1
9.0,-2.28,,,,1637401901.8836806,1
9.0,0.11,,,2338029.0,1637401901.903125,1
9.0,4.79,,,,1637401901.9225695,1
9.0,9.51,,,2337874.0,1637401901.942014,1
9.0,11.65,,,,1637401901.9614584,1
9.0,12.26,,,2339612.0,1637401901.9809027,1
9.0,9.530000000000001,1.246696,35.77,,1637401902.0003471,1
9.0,3.95,,,2340068.0,1637401902.0197916,1
9.0,-0.55,,,,1637401902.039236,1
9.0,-4.73,,,2337725.0,1637401902.0586805,1
9.0,-8.15,,,,1637401902.078125,1
9.0,-11.379999999999999,,,2334835.0,1637401902.0975695,1
9.0,-12.88,,,,1637401902.117014,1
9.0,-13.01,,,2331997.0,1637401902.1364584,1
9.0,-12.82,,,,1637401902.1559029,1
9.0,-12.555,,,2329087.0,1637401902.1753473,1
9.0,-12.61,,,,1637401902.1947916,1
9.0,-12.71,,,2328162.0,1637401902.214236,1
9.0,-12.61,,,,1637401902.2336805,1
9.0,-11.86,1.250539,35.73,,1637401902.253125,1
9.0,-10.84,,,2329245.0,1637401902.2725694,1
9.0,-10.31,,,,1637401902.292014,1
9.0,-10.03,,,2327987.0,1637401902.3114583,1
9.0,-10.045,,,,1637401902.3309028,1
9.0,-10.58,,,2323567.0,1637401902.3503473,1
9.0,-11.51,,,2320340.0,1637401902.3697917,1
9.0,-13.01,,,,1637401902.3892362,1
9.0,-15.955000000000002,,,,1637401902.4086804,1
9.0,-18.41,,,2318271.0,1637401902.428125,1
9.0,-18.93,,,,1637401902.4475694,1
9.0,-18.37,,,2315244.0,1637401902.4670138,1
9.0,-16.07,,,,1637401902.4864583,1
9.0,-13.59,1.250539,35.73,2312517.0,1637401902.5059028,1
9.0,-12.6,,,,1637401902.5253472,1
9.0,-12.34,,,2311284.0,1637401902.5447917,1
9.0,-12.89,,,,1637401902.5642362,1
9.0,-13.22,,,2309456.0,1637401902.5836806,1
9.0,-12.49,,,,1637401902.603125,1
9.0,-10.76,,,2307316.0,1637401902.6225696,1
9.0,-6.74,,,,1637401902.6420138,1
9.0,-2.43,,,2305507.0,1637401902.6614583,1
9.0,-0.03,,,,1637401902.6809027,1
9.0,1.89,,,2305533.0,1637401902.7003472,1
9.0,4.215,,,,1637401902.7197917,1
9.0,6.45,,,2304920.0,1637401902.739236,1
9.0,7.92,1.246696,35.73,,1637401902.7586806,1
9.0,9.21,,,2310839.0,1637401902.778125,1
9.0,10.524999999999999,,,,1637401902.7975695,1
9.0,11.19,,,2332543.0,1637401902.817014,1
9.0,11.19,,,,1637401902.8364584,1
9.0,10.91,,,2343778.0,1637401902.8559027,1
9.0,10.15,,,,1637401902.8753471,1
9.0,9.61,,,2348726.0,1637401902.8947916,1
9.0,9.83,,,,1637401902.914236,1
9.0,10.56,,,2348152.0,1637401902.9336805,1
9.0,11.55,,,,1637401902.953125,1
9.0,12.555,,,2344180.0,1637401902.9725695,1
9.0,12.52,,,,1637401902.992014,1
9.0,12.02,1.242853,35.73,2338519.0,1637401903.0114584,1
9.0,11.65,,,,1637401903.0309029,1
9.0,12.004999999999999,,,2333547.0,1637401903.0503473,1
9.0,12.99,,,,1637401903.0697916,1
9.0,13.4,,,,1637401903.089236,1
9.0,13.14,,,2332459.0,1637401903.1086805,1
9.0,11.24,,,,1637401903.128125,1
9.0,8.24,,,2333239.0,1637401903.1475694,1
9.0,5.88,,,,1637401903.167014,1
9.0,3.55,,,2331151.0,1637401903.1864583,1
9.0,0.605,,,,1637401903.2059028,1
9.0,-1.13,,,2328265.0,1637401903.2253473,1
9.0,-1.28,,,,1637401903.2447917,1
9.0,-0.89,1.245415,35.73,2324485.0,1637401903.2642362,1
9.0,-0.36,,,,1637401903.2836804,1
9.0,-1.0,,,2320856.0,1637401903.303125,1
9.0,-2.47,,,,1637401903.3225694,1
9.0,-4.49,,,2317629.0,1637401903.3420138,1
9.0,-7.585,,,,1637401903.3614583,1
9.0,-9.69,,,2315542.0,1637401903.3809028,1
9.0,-9.93,,,,1637401903.4003472,1
9.0,-9.08,,,2314174.0,1637401903.4197917,1
9.0,-6.045,,,,1637401903.4392362,1
9.0,-2.38,,,2314937.0,1637401903.4586806,1
9.0,-0.56,,,,1637401903.478125,1
9.0,0.21,,,2317356.0,1637401903.4975696,1
9.0,-0.7849999999999999,1.240291,35.73,,1637401903.5170138,1
9.0,-2.93,,,2318302.0,1637401903.5364583,1
9.0,-4.32,,,,1637401903.5559027,1
9.0,-5.3,,,2318991.0,1637401903.5753472,1
9.0,-5.9399999999999995,,,,1637401903.5947917,1
9.0,-5.93,,,2319815.0,1637401903.614236,1
9.0,-5.59,,,,1637401903.6336806,1
9.0,-5.05,,,2320361.0,1637401903.653125,1
9.0,-4.045,,,,1637401903.6725695,1
9.0,-3.02,,,2320355.0,1637401903.692014,1
9.0,-2.28,,,,1637401903.7114584,1
9.0,-1.38,,,2320559.0,1637401903.7309027,1
9.0,0.365,1.232605,35.73,,1637401903.7503471,1
9.0,2.15,,,,1637401903.7697916,1
9.0,2.98,,,2320815.0,1637401903.789236,1
9.0,3.36,,,,1637401903.8086805,1
9.0,3.41,,,2321683.0,1637401903.828125,1
9.0,3.5999999999999996,,,,1637401903.8475695,1
9.0,4.56,,,2322037.0,1637401903.867014,1
9.0,5.81,,,,1637401903.8864584,1
9.0,7.24,,,2322293.0,1637401903.9059029,1
9.0,9.065000000000001,,,,1637401903.9253473,1
9.0,10.08,,,2321680.0,1637401903.9447916,1
9.0,10.14,,,,1637401903.964236,1
9.0,9.82,,,2319861.0,1637401903.9836805,1
9.0,8.75,1.235167,35.73,,1637401904.003125,1
9.0,7.45,,,2318149.0,1637401904.0225694,1
9.0,6.64,,,,1637401904.042014,1
9.0,5.99,,,2317069.0,1637401904.0614583,1
9.0,5.395,,,,1637401904.0809028,1
9.0,4.89,,,2315703.0,1637401904.1003473,1
9.0,4.38,,,,1637401904.1197917,1
9.0,3.63,,,2314452.0,1637401904.1392362,1
9.0,2.17,,,,1637401904.1586804,1
9.0,0.78,,,2313568.0,1637401904.178125,1
9.0,0.22,,,,1637401904.1975694,1
9.0,0.15,,,2312121.0,1637401904.2170138,1
9.0,1.165,,,,1637401904.2364583,1
9.0,3.11,1.236448,35.73,2310715.0,1637401904.2559028,1
9.0,4.64,,,,1637401904.2753472,1
9.0,5.91,,,2308923.0,1637401904.2947917,1
9.0,6.635,,,,1637401904.3142362,1
9.0,6.04,,,2307238.0,1637401904.3336806,1
9.0,5.09,,,,1637401904.353125,1
9.0,4.13,,,2305624.0,1637401904.3725696,1
9.0,3.2350000000000003,,,,1637401904.3920138,1
9.0,2.88,,,,1637401904.4114583,1
9.0,2.76,,,2304618.0,1637401904.4309027,1
9.0,2.54,,,,1637401904.4503472,1
9.0,2.005,,,2303716.0,1637401904.4697917,1
9.0,1.48,,,,1637401904.489236,1
9.0,1.25,1.237729,35.73,2302980.0,1637401904.5086806,1
9.0,1.09,,,,1637401904.528125,1
9.0,0.72,,,2302960.0,1637401904.5475695,1
9.0,-0.08,,,,1637401904.567014,1
9.0,-0.98,,,2302840.0,1637401904.5864584,1
9.0,-2.1,,,,1637401904.6059027,1
9.0,-3.85,,,2303163.0,1637401904.6253471,1
9.0,-5.43,,,,1637401904.6447916,1
9.0,-6.44,,,2303175.0,1637401904.664236,1
9.0,-7.58,,,,1637401904.6836805,1
9.0,-8.98,,,2302274.0,1637401904.703125,1
9.0,-11.28,,,,1637401904.7225695,1
9.0,-13.11,,,2300237.0,1637401904.742014,1
9.0,-13.5,1.235167,35.73,,1637401904.7614584,1
9.0,-13.14,,,2297895.0,1637401904.7809029,1
9.0,-11.66,,,,1637401904.8003473,1
9.0,-10.05,,,2295861.0,1637401904.8197916,1
9.0,-9.26,,,,1637401904.839236,1
9.0,-8.68,,,2294723.0,1637401904.8586805,1
9.0,-7.855,,,,1637401904.878125,1
9.0,-6.79,,,2296206.0,1637401904.8975694,1
9.0,-5.94,,,,1637401904.917014,1
9.0,-5.09,,,2298636.0,1637401904.9364583,1
9.0,-3.8549999999999995,,,,1637401904.9559028,1
9.0,-2.54,,,2305254.0,1637401904.9753473,1
9.0,-1.47,,,,1637401904.9947917,1
9.0,-0.25,1.235167,35.73,,1637401905.0142362,1
9.0,1.7,,,2313160.0,1637401905.0336804,1
9.0,3.42,,,2317559.0,1637401905.053125,1
9.0,4.12,,,,1637401905.0725694,1
9.0,4.29,,,,1637401905.0920138,1
9.0,3.25,,,2324296.0,1637401905.1114583,1
9.0,1.2,,,,1637401905.1309028,1
9.0,-0.39,,,2330369.0,1637401905.1503472,1
9.0,-1.7,,,,1637401905.1697917,1
9.0,-2.5,,,2335244.0,1637401905.1892362,1
9.0,-2.02,,,,1637401905.2086806,1
9.0,-0.95,,,2336395.0,1637401905.228125,1
9.0,0.51,,,,1637401905.2475696,1
9.0,3.05,1.227481,35.73,2340946.0,1637401905.2670138,1
9.0,5.23,,,,1637401905.2864583,1
9.0,5.96,,,2343153.0,1637401905.3059027,1
9.0,5.96,,,,1637401905.3253472,1
9.0,5.050000000000001,,,2344183.0,1637401905.3447917,1
9.0,4.13,,,,1637401905.364236,1
9.0,3.87,,,2345282.0,1637401905.3836806,1
9.0,3.81,,,,1637401905.403125,1
9.0,3.4699999999999998,,,2344084.0,1637401905.4225695,1
9.0,2.7,,,,1637401905.442014,1
9.0,2.19,,,2338766.0,1637401905.4614584,1
9.0,2.0,,,,1637401905.4809027,1
9.0,2.2199999999999998,1.233886,35.73,2332906.0,1637401905.5003471,1
9.0,2.22,,,,1637401905.5197916,1
9.0,1.59,,,2326542.0,1637401905.539236,1
9.0,0.45,,,,1637401905.5586805,1
9.0,-0.89,,,,1637401905.578125,1
9.0,-2.395,,,2321545.0,1637401905.5975695,1
9.0,-2.87,,,,1637401905.617014,1
9.0,-2.5,,,2317735.0,1637401905.6364584,1
9.0,-1.73,,,,1637401905.6559029,1
9.0,0.07500000000000001,,,2315520.0,1637401905.6753473,1
9.0,2.35,,,,1637401905.6947916,1
9.0,3.99,,,2314076.0,1637401905.714236,1
9.0,5.44,,,,1637401905.7336805,1
9.0,6.635,1.230043,35.73,2313026.0,1637401905.753125,1
9.0,6.59,,,,1637401905.7725694,1
9.0,5.86,,,2312062.0,1637401905.792014,1
9.0,4.98,,,,1637401905.8114583,1
9.0,4.225,,,2311031.0,1637401905.8309028,1
9.0,4.68,,,,1637401905.8503473,1
9.0,5.76,,,2309867.0,1637401905.8697917,1
9.0,7.02,,,,1637401905.8892362,1
9.0,7.9799999999999995,,,2309204.0,1637401905.9086804,1
9.0,7.19,,,,1637401905.928125,1
9.0,5.63,,,2308711.0,1637401905.9475694,1
9.0,3.85,,,,1637401905.9670138,1
9.0,1.995,,,2308764.0,1637401905.9864583,1
9.0,1.44,1.223639,35.73,,1637401906.0059028,1
9.0,1.65,,,2308845.0,1637401906.0253472,1
9.0,1.84,,,,1637401906.0447917,1
9.0,1.565,,,2308858.0,1637401906.0642362,1
9.0,0.7,,,,1637401906.0836806,1
9.0,-0.14,,,,1637401906.103125,1
9.0,-1.19,,,2308832.0,1637401906.1225696,1
9.0,-3.25,,,,1637401906.1420138,1
9.0,-5.64,,,2308981.0,1637401906.1614583,1
9.0,-7.07,,,,1637401906.1809027,1
9.0,-7.99,,,2309395.0,1637401906.2003472,1
9.0,-8.055,,,,1637401906.2197917,1
9.0,-7.01,,,2308766.0,1637401906.239236,1
9.0,-5.9,1.228763,35.71,,1637401906.2586806,1
9.0,-4.74,,,2306504.0,1637401906.278125,1
9.0,-3.23,,,,1637401906.2975695,1
9.0,-2.3,,,2303941.0,1637401906.317014,1
9.0,-2.23,,,,1637401906.3364584,1
9.0,-2.59,,,2301673.0,1637401906.3559027,1
9.0,-3.76,,,,1637401906.3753471,1
9.0,-5.22,,,2300019.0,1637401906.3947916,1
9.0,-6.2,,,,1637401906.414236,1
9.0,-7.01,,,2298486.0,1637401906.4336805,1
9.0,-7.5,,,,1637401906.453125,1
9.0,-7.08,,,2297419.0,1637401906.4725695,1
9.0,-5.26,,,,1637401906.492014,1
9.0,-3.26,1.226201,35.71,2296515.0,1637401906.5114584,1
9.0,-1.01,,,,1637401906.5309029,1
9.0,2.255,,,2295555.0,1637401906.5503473,1
9.0,5.06,,,,1637401906.5697916,1
9.0,6.61,,,2294662.0,1637401906.589236,1
9.0,7.88,,,,1637401906.6086805,1
9.0,8.879999999999999,,,2293479.0,1637401906.628125,1
9.0,8.58,,,,1637401906.6475694,1
9.0,7.4,,,2293212.0,1637401906.667014,1
9.0,5.62,,,,1637401906.6864583,1
9.0,2.38,,,,1637401906.7059028,1
9.0,-0.74,,,2292613.0,1637401906.7253473,1
9.0,-2.34,,,,1637401906.7447917,1
9.0,-3.37,1.235167,35.71,2292101.0,1637401906.7642362,1
9.0,-3.675,,,,1637401906.7836804,1
9.0,-2.91,,,2292174.0,1637401906.803125,1
9.0,-2.05,,,,1637401906.8225694,1
9.0,-1.35,,,2291942.0,1637401906.8420138,1
9.0,-1.3250000000000002,,,,1637401906.8614583,1
9.0,-2.6,,,2291853.0,1637401906.8809028,1
9.0,-4.1,,,,1637401906.9003472,1
9.0,-5.68,,,2291749.0,1637401906.9197917,1
9.0,-7.42,,,,1637401906.9392362,1
9.0,-8.15,,,2291877.0,1637401906.9586806,1
9.0,-8.03,,,,1637401906.978125,1
9.0,-7.69,,,2290340.0,1637401906.9975696,1
9.0,-7.175,1.226201,35.71,,1637401907.0170138,1
9.0,-6.99,,,2288888.0,1637401907.0364583,1
9.0,-7.08,,,,1637401907.0559027,1
9.0,-7.17,,,2288126.0,1637401907.0753472,1
9.0,-6.98,,,,1637401907.0947917,1
9.0,-6.38,,,2287699.0,1637401907.114236,1
9.0,-5.87,,,,1637401907.1336806,1
9.0,-5.42,,,2287104.0,1637401907.153125,1
9.0,-4.92,,,,1637401907.1725695,1
9.0,-4.31,,,2288254.0,1637401907.192014,1
9.0,-3.59,,,,1637401907.2114584,1
9.0,-2.57,,,2302819.0,1637401907.2309027,1
9.0,-0.585,1.226201,35.71,,1637401907.2503471,1
9.0,1.69,,,2317247.0,1637401907.2697916,1
9.0,3.34,,,,1637401907.289236,1
9.0,5.04,,,2326268.0,1637401907.3086805,1
9.0,6.66,,,,1637401907.328125,1
9.0,8.315,,,2331219.0,1637401907.3475695,1
9.0,8.5,,,,1637401907.367014,1
9.0,7.41,,,2336018.0,1637401907.3864584,1
9.0,5.46,,,,1637401907.4059029,1
9.0,1.5,,,,1637401907.4253473,1
9.0,-2.74,,,2337109.0,1637401907.4447916,1
9.0,-5.25,,,,1637401907.464236,1
9.0,-7.19,,,2341494.0,1637401907.4836805,1
9.0,-8.719999999999999,1.231324,35.71,,1637401907.503125,1
9.0,-9.0,,,2344988.0,1637401907.5225694,1
9.0,-8.74,,,,1637401907.542014,1
9.0,-8.49,,,2350145.0,1637401907.5614583,1
9.0,-8.190000000000001,,,,1637401907.5809028,1
9.0,-7.5,,,2350813.0,1637401907.6003473,1
9.0,-6.29,,,,1637401907.6197917,1
9.0,-4.35,,,2347928.0,1637401907.6392362,1
9.0,-0.42500000000000004,,,,1637401907.6586804,1
9.0,3.68,,,2345639.0,1637401907.678125,1
9.0,6.08,,,,1637401907.6975694,1
9.0,8.11,,,2340741.0,1637401907.7170138,1
9.0,10.45,,,,1637401907.7364583,1
9.0,12.0,1.231324,35.71,2334686.0,1637401907.7559028,1
9.0,12.32,,,,1637401907.7753472,1
9.0,12.04,,,2328224.0,1637401907.7947917,1
9.0,10.73,,,,1637401907.8142362,1
9.0,9.22,,,2324417.0,1637401907.8336806,1
9.0,8.54,,,,1637401907.853125,1
9.0,8.22,,,2320489.0,1637401907.8725696,1
9.0,8.455,,,,1637401907.8920138,1
9.0,9.22,,,2319087.0,1637401907.9114583,1
9.0,9.95,,,,1637401907.9309027,1
9.0,10.73,,,2318297.0,1637401907.9503472,1
9.0,11.58,,,,1637401907.9697917,1
9.0,11.74,,,2317616.0,1637401907.989236,1
9.0,11.3,1.230043,35.71,,1637401908.0086806,1
9.0,10.56,,,,1637401908.028125,1
9.0,9.295,,,2317424.0,1637401908.0475695,1
9.0,8.21,,,2317119.0,1637401908.067014,1
9.0,7.59,,,,1637401908.0864584,1
9.0,6.86,,,,1637401908.1059027,1
9.0,4.855,,,2316824.0,1637401908.1253471,1
9.0,1.38,,,,1637401908.1447916,1
9.0,-2.01,,,2316267.0,1637401908.164236,1
9.0,-5.93,,,,1637401908.1836805,1
9.0,-9.86,,,2315809.0,1637401908.203125,1
9.0,-14.355,,,,1637401908.2225695,1
9.0,-16.56,,,2315046.0,1637401908.242014,1
9.0,-16.54,1.22492,35.71,,1637401908.2614584,1
9.0,-15.82,,,2314690.0,1637401908.2809029,1
9.0,-14.08,,,,1637401908.3003473,1
9.0,-11.9,,,2313756.0,1637401908.3197916,1
9.0,-10.03,,,,1637401908.339236,1
9.0,-7.79,,,2311446.0,1637401908.3586805,1
9.0,-4.23,,,,1637401908.378125,1
9.0,-1.3,,,2307681.0,1637401908.3975694,1
9.0,-0.21,,,,1637401908.417014,1
9.0,0.17,,,2304308.0,1637401908.4364583,1
9.0,-0.13,,,,1637401908.4559028,1
9.0,-0.55,,,2300864.0,1637401908.4753473,1
9.0,-0.51,,,,1637401908.4947917,1
9.0,-0.05,1.221077,35.71,2298084.0,1637401908.5142362,1
9.0,1.025,,,,1637401908.5336804,1
9.0,1.86,,,2296104.0,1637401908.553125,1
9.0,1.96,,,,1637401908.5725694,1
9.0,1.96,,,2294793.0,1637401908.5920138,1
9.0,2.9050000000000002,,,,1637401908.6114583,1
9.0,5.65,,,2293465.0,1637401908.6309028,1
9.0,8.38,,,,1637401908.6503472,1
9.0,10.94,,,2292121.0,1637401908.6697917,1
9.0,12.455,,,,1637401908.6892362,1
9.0,11.02,,,,1637401908.7086806,1
9.0,8.77,,,2291185.0,1637401908.728125,1
9.0,6.52,,,,1637401908.7475696,1
9.0,4.36,1.221077,35.71,2290159.0,1637401908.7670138,1
9.0,3.5,,,2289633.0,1637401908.7864583,1
9.0,3.31,,,,1637401908.8059027,1
9.0,3.15,,,2289218.0,1637401908.8253472,1
9.0,3.045,,,,1637401908.8447917,1
9.0,3.33,,,2288698.0,1637401908.864236,1
9.0,3.71,,,,1637401908.8836806,1
9.0,3.97,,,2288452.0,1637401908.903125,1
9.0,3.4299999999999997,,,,1637401908.9225695,1
9.0,1.9,,,,1637401908.942014,1
9.0,0.75,,,2288355.0,1637401908.9614584,1
9.0,0.09,,,,1637401908.9809027,1
9.0,0.7,1.235167,35.71,2287693.0,1637401909.0003471,1
9.0,2.53,,,,1637401909.0197916,1
9.0,3.86,,,2285362.0,1637401909.039236,1
9.0,4.71,,,,1637401909.0586805,1
9.0,4.94,,,2282149.0,1637401909.078125,1
9.0,4.380000000000001,,,,1637401909.0975695,1
9.0,3.58,,,2279600.0,1637401909.117014,1
9.0,3.15,,,,1637401909.1364584,1
9.0,2.82,,,2277282.0,1637401909.1559029,1
9.0,2.1500000000000004,,,,1637401909.1753473,1
9.0,1.12,,,2275570.0,1637401909.1947916,1
9.0,0.26,,,,1637401909.214236,1
9.0,-0.52,,,2274348.0,1637401909.2336805,1
9.0,-1.125,1.223639,35.68,,1637401909.253125,1
9.0,-1.13,,,2273779.0,1637401909.2725694,1
9.0,-0.97,,,,1637401909.292014,1
9.0,-0.98,,,2272979.0,1637401909.3114583,1
9.0,-1.615,,,,1637401909.3309028,1
9.0,-2.69,,,2271702.0,1637401909.3503473,1
9.0,-3.3,,,,1637401909.3697917,1
9.0,-3.59,,,2270250.0,1637401909.3892362,1
9.0,-3.395,,,,1637401909.4086804,1
9.0,-2.94,,,2271011.0,1637401909.428125,1
9.0,-2.71,,,,1637401909.4475694,1
9.0,-2.54,,,2273636.0,1637401909.4670138,1
9.0,-2.11,,,,1637401909.4864583,1
9.0,-1.33,1.218515,35.68,2275681.0,1637401909.5059028,1
9.0,-0.68,,,,1637401909.5253472,1
9.0,-0.16,,,2275302.0,1637401909.5447917,1
9.0,-0.015,,,,1637401909.5642362,1
9.0,-0.5,,,2277695.0,1637401909.5836806,1
9.0,-1.0,,,,1637401909.603125,1
9.0,-1.36,,,,1637401909.6225696,1
9.0,-1.455,,,2279787.0,1637401909.6420138,1
9.0,-1.25,,,,1637401909.6614583,1
9.0,-1.17,,,2277432.0,1637401909.6809027,1
9.0,-1.28,,,,1637401909.7003472,1
9.0,-1.73,,,2272724.0,1637401909.7197917,1
9.0,-2.21,,,,1637401909.739236,1
9.0,-2.42,1.222358,35.68,2269099.0,1637401909.7586806,1
9.0,-2.58,,,,1637401909.778125,1
9.0,-2.995,,,2275129.0,1637401909.7975695,1
9.0,-3.73,,,,1637401909.817014,1
9.0,-4.31,,,2279171.0,1637401909.8364584,1
9.0,-4.78,,,,1637401909.8559027,1
9.0,-4.865,,,2280940.0,1637401909.8753471,1
9.0,-4.39,,,,1637401909.8947916,1
9.0,-3.86,,,2279981.0,1637401909.914236,1
9.0,-3.33,,,,1637401909.9336805,1
9.0,-2.84,,,2280763.0,1637401909.953125,1
9.0,-2.16,,,,1637401909.9725695,1
9.0,-1.54,,,2279641.0,1637401909.992014,1
9.0,-1.33,1.223639,35.68,,1637401910.0114584,1
9.0,-1.53,,,2278196.0,1637401910.0309029,1
9.0,-2.99,,,,1637401910.0503473,1
9.0,-5.33,,,2275886.0,1637401910.0697916,1
9.0,-6.92,,,,1637401910.089236,1
9.0,-8.03,,,2273728.0,1637401910.1086805,1
9.0,-8.165000000000001,,,,1637401910.128125,1
9.0,-6.76,,,2271221.0,1637401910.1475694,1
9.0,-5.09,,,,1637401910.167014,1
9.0,-3.16,,,2270307.0,1637401910.1864583,1
9.0,-0.15499999999999997,,,,1637401910.2059028,1
9.0,2.71,,,2269525.0,1637401910.2253473,1
9.0,4.42,,,,1637401910.2447917,1
9.0,5.83,1.222358,35.71,2268891.0,1637401910.2642362,1
9.0,6.805,,,,1637401910.2836804,1
9.0,6.17,,,,1637401910.303125,1
9.0,4.69,,,2266316.0,1637401910.3225694,1
9.0,2.82,,,,1637401910.3420138,1
9.0,0.44000000000000006,,,2262306.0,1637401910.3614583,1
9.0,-0.79,,,,1637401910.3809028,1
9.0,-0.96,,,2259037.0,1637401910.4003472,1
9.0,-1.06,,,,1637401910.4197917,1
9.0,-1.5550000000000002,,,2255547.0,1637401910.4392362,1
9.0,-2.3,,,,1637401910.4586806,1
9.0,-2.6,,,2252614.0,1637401910.478125,1
9.0,-2.58,,,,1637401910.4975696,1
9.0,-1.85,1.218515,35.71,2250263.0,1637401910.5170138,1
9.0,-0.44,,,,1637401910.5364583,1
9.0,1.05,,,2248406.0,1637401910.5559027,1
9.0,3.02,,,,1637401910.5753472,1
9.0,6.445,,,2246440.0,1637401910.5947917,1
9.0,9.41,,,,1637401910.614236,1
9.0,10.48,,,2244382.0,1637401910.6336806,1
9.0,10.71,,,,1637401910.653125,1
9.0,9.69,,,2242569.0,1637401910.6725695,1
9.0,7.83,,,,1637401910.692014,1
9.0,6.27,,,2240950.0,1637401910.7114584,1
9.0,4.59,,,,1637401910.7309027,1
9.0,2.185,1.219796,35.71,2239602.0,1637401910.7503471,1
9.0,0.37,,,,1637401910.7697916,1
9.0,-0.18,,,2238931.0,1637401910.789236,1
9.0,-0.29,,,,1637401910.8086805,1
9.0,-0.09,,,2237818.0,1637401910.828125,1
9.0,0.16999999999999998,,,,1637401910.8475695,1
9.0,-0.2,,,2236776.0,1637401910.867014,1
9.0,-1.1,,,,1637401910.8864584,1
9.0,-2.51,,,2235880.0,1637401910.9059029,1
9.0,-5.225,,,,1637401910.9253473,1
9.0,-7.71,,,2234744.0,1637401910.9447916,1
9.0,-8.6,,,,1637401910.964236,1
9.0,-8.63,,,2231202.0,1637401910.9836805,1
9.0,-7.045,1.215953,35.71,,1637401911.003125,1
9.0,-4.57,,,2226905.0,1637401911.0225694,1
9.0,-2.97,,,,1637401911.042014,1
9.0,-1.79,,,2222544.0,1637401911.0614583,1
9.0,-1.2149999999999999,,,,1637401911.0809028,1
9.0,-1.76,,,2218928.0,1637401911.1003473,1
9.0,-2.55,,,,1637401911.1197917,1
9.0,-3.29,,,2216443.0,1637401911.1392362,1
9.0,-3.45,,,,1637401911.1586804,1
9.0,-2.29,,,2214588.0,1637401911.178125,1
9.0,-0.86,,,,1637401911.1975694,1
9.0,0.62,,,2212864.0,1637401911.2170138,1
9.0,2.155,,,,1637401911.2364583,1
9.0,2.89,1.221077,35.68,,1637401911.2559028,1
9.0,3.15,,,2211125.0,1637401911.2753472,1
9.0,3.53,,,,1637401911.2947917,1
9.0,4.35,,,2209585.0,1637401911.3142362,1
9.0,4.93,,,,1637401911.3336806,1
9.0,4.83,,,2208223.0,1637401911.353125,1
9.0,4.27,,,,1637401911.3725696,1
9.0,2.9,,,2206996.0,1637401911.3920138,1
9.0,1.42,,,,1637401911.4114583,1
9.0,0.52,,,2205882.0,1637401911.4309027,1
9.0,-0.27,,,,1637401911.4503472,1
9.0,-1.005,,,2205167.0,1637401911.4697917,1
9.0,-0.8,,,,1637401911.489236,1
9.0,0.32,1.214672,35.68,2204614.0,1637401911.5086806,1
9.0,2.21,,,,1637401911.528125,1
9.0,5.755,,,2204107.0,1637401911.5475695,1
9.0,8.68,,,,1637401911.567014,1
9.0,9.44,,,2204449.0,1637401911.5864584,1
9.0,9.11,,,,1637401911.6059027,1
9.0,7.225,,,2204039.0,1637401911.6253471,1
9.0,4.98,,,,1637401911.6447916,1
9.0,3.74,,,2201227.0,1637401911.664236,1
9.0,2.72,,,2198396.0,1637401911.6836805,1
9.0,1.76,,,,1637401911.703125,1
9.0,0.10499999999999998,,,,1637401911.7225695,1
9.0,-1.67,,,2195616.0,1637401911.742014,1
9.0,-2.74,1.214672,35.68,,1637401911.7614584,1
9.0,-3.65,,,2193551.0,1637401911.7809029,1
9.0,-4.9399999999999995,,,,1637401911.8003473,1
9.0,-6.39,,,2192837.0,1637401911.8197916,1
9.0,-7.31,,,,1637401911.839236,1
9.0,-7.82,,,2193715.0,1637401911.8586805,1
9.0,-7.16,,,,1637401911.878125,1
9.0,-5.26,,,2194156.0,1637401911.8975694,1
9.0,-3.82,,,,1637401911.917014,1
9.0,-2.83,,,2200670.0,1637401911.9364583,1
9.0,-2.4000000000000004,,,,1637401911.9559028,1
9.0,-2.39,,,2207960.0,1637401911.9753473,1
9.0,-2.11,,,,1637401911.9947917,1
9.0,-1.53,1.213391,35.68,2213818.0,1637401912.0142362,1
9.0,-0.815,,,,1637401912.0336804,1
9.0,-0.96,,,2217193.0,1637401912.053125,1
9.0,-1.66,,,,1637401912.0725694,1
9.0,-2.5,,,2216932.0,1637401912.0920138,1
9.0,-3.5549999999999997,,,,1637401912.1114583,1
9.0,-4.41,,,2221786.0,1637401912.1309028,1
9.0,-5.09,,,,1637401912.1503472,1
9.0,-5.85,,,2228744.0,1637401912.1697917,1
9.0,-6.59,,,,1637401912.1892362,1
9.0,-6.24,,,2232531.0,1637401912.2086806,1
9.0,-5.21,,,,1637401912.228125,1
9.0,-3.91,,,2233791.0,1637401912.2475696,1
9.0,-2.4050000000000002,1.218515,35.68,,1637401912.2670138,1
9.0,-2.1,,,2233416.0,1637401912.2864583,1
9.0,-2.76,,,,1637401912.3059027,1
9.0,-3.79,,,,1637401912.3253472,1
9.0,-5.1850000000000005,,,2229873.0,1637401912.3447917,1
9.0,-5.56,,,,1637401912.364236,1
9.0,-4.83,,,2224398.0,1637401912.3836806,1
9.0,-3.48,,,,1637401912.403125,1
9.0,-1.2349999999999999,,,2218346.0,1637401912.4225695,1
9.0,-0.07,,,,1637401912.442014,1
9.0,-0.52,,,2213023.0,1637401912.4614584,1
9.0,-1.75,,,,1637401912.4809027,1
9.0,-3.84,1.219796,35.68,2209354.0,1637401912.5003471,1
9.0,-4.66,,,,1637401912.5197916,1
9.0,-3.8,,,2205991.0,1637401912.539236,1
9.0,-1.93,,,,1637401912.5586805,1
9.0,0.57,,,2203702.0,1637401912.578125,1
9.0,4.529999999999999,,,,1637401912.5975695,1
9.0,7.74,,,2201921.0,1637401912.617014,1
9.0,9.03,,,,1637401912.6364584,1
9.0,9.6,,,2199943.0,1637401912.6559029,1
9.0,9.095,,,,1637401912.6753473,1
9.0,7.59,,,2198900.0,1637401912.6947916,1
9.0,6.25,,,,1637401912.714236,1
9.0,4.93,,,2198302.0,1637401912.7336805,1
9.0,3.535,1.21211,35.68,,1637401912.753125,1
9.0,3.15,,,2197780.0,1637401912.7725694,1
9.0,3.67,,,,1637401912.792014,1
9.0,4.71,,,2197281.0,1637401912.8114583,1
9.0,6.855,,,,1637401912.8309028,1
9.0,9.06,,,2197451.0,1637401912.8503473,1
9.0,10.34,,,,1637401912.8697917,1
9.0,11.33,,,2197199.0,1637401912.8892362,1
9.0,12.129999999999999,,,,1637401912.9086804,1
9.0,11.97,,,2197208.0,1637401912.928125,1
9.0,11.09,,,,1637401912.9475694,1
9.0,9.56,,,2196881.0,1637401912.9670138,1
9.0,6.305,,,,1637401912.9864583,1
9.0,2.61,1.21211,35.68,2197110.0,1637401913.0059028,1
9.0,0.05,,,,1637401913.0253472,1
9.0,-2.63,,,,1637401913.0447917,1
9.0,-7.145,,,2197066.0,1637401913.0642362,1
9.0,-11.89,,,,1637401913.0836806,1
9.0,-14.58,,,2195829.0,1637401913.103125,1
9.0,-16.33,,,,1637401913.1225696,1
9.0,-16.66,,,2193176.0,1637401913.1420138,1
9.0,-15.33,,,,1637401913.1614583,1
9.0,-14.16,,,2190600.0,1637401913.1809027,1
9.0,-13.24,,,,1637401913.2003472,1
9.0,-12.305,,,2188199.0,1637401913.2197917,1
9.0,-11.28,,,,1637401913.239236,1
9.0,-10.36,1.215953,35.65,2188199.0,1637401913.2586806,1
9.0,-9.41,,,,1637401913.278125,1
9.0,-8.365,,,2186489.0,1637401913.2975695,1
9.0,-7.67,,,,1637401913.317014,1
9.0,-7.1,,,2185425.0,1637401913.3364584,1
9.0,-6.17,,,,1637401913.3559027,1
9.0,-4.125,,,2184665.0,1637401913.3753471,1
9.0,-1.98,,,,1637401913.3947916,1
9.0,-0.94,,,2184171.0,1637401913.414236,1
9.0,-0.4,,,,1637401913.4336805,1
9.0,-0.33,,,2183346.0,1637401913.453125,1
9.0,-0.9950000000000001,,,,1637401913.4725695,1
9.0,-2.12,,,2182891.0,1637401913.492014,1
9.0,-2.96,1.215953,35.65,,1637401913.5114584,1
9.0,-3.69,,,2182818.0,1637401913.5309029,1
9.0,-4.305,,,,1637401913.5503473,1
9.0,-4.36,,,2182433.0,1637401913.5697916,1
9.0,-4.06,,,,1637401913.589236,1
9.0,-3.53,,,2182667.0,1637401913.6086805,1
9.0,-2.135,,,,1637401913.628125,1
9.0,0.0,,,2182540.0,1637401913.6475694,1
9.0,1.92,,,,1637401913.667014,1
9.0,3.99,,,2182851.0,1637401913.6864583,1
9.0,6.710000000000001,,,,1637401913.7059028,1
9.0,8.42,,,2183180.0,1637401913.7253473,1
9.0,8.77,,,,1637401913.7447917,1
9.0,8.64,1.218515,35.65,2183650.0,1637401913.7642362,1
9.0,7.795,,,,1637401913.7836804,1
9.0,6.48,,,2183773.0,1637401913.803125,1
9.0,5.37,,,,1637401913.8225694,1
9.0,4.17,,,2184141.0,1637401913.8420138,1
9.0,2.755,,,,1637401913.8614583,1
9.0,2.18,,,,1637401913.8809028,1
9.0,2.41,,,2182983.0,1637401913.9003472,1
9.0,2.85,,,,1637401913.9197917,1
9.0,3.23,,,2181645.0,1637401913.9392362,1
9.0,2.94,,,,1637401913.9586806,1
9.0,2.36,,,2180914.0,1637401913.978125,1
9.0,1.72,,,,1637401913.9975696,1
9.0,1.0899999999999999,1.217234,35.65,2180666.0,1637401914.0170138,1
9.0,0.87,,,,1637401914.0364583,1
9.0,0.86,,,2182276.0,1637401914.0559027,1
9.0,0.82,,,2186020.0,1637401914.0753472,1
9.0,0.6699999999999999,,,,1637401914.0947917,1
9.0,0.72,,,2188510.0,1637401914.114236,1
9.0,1.14,,,,1637401914.1336806,1
9.0,1.96,,,2189119.0,1637401914.153125,1
9.0,3.6500000000000004,,,,1637401914.1725695,1
9.0,5.3,,,2190357.0,1637401914.192014,1
9.0,6.14,,,,1637401914.2114584,1
9.0,6.82,,,2191876.0,1637401914.2309027,1
9.0,8.0,1.221077,35.63,,1637401914.2503471,1
9.0,9.52,,,2194452.0,1637401914.2697916,1
9.0,10.6,,,,1637401914.289236,1
9.0,11.42,,,2194281.0,1637401914.3086805,1
9.0,11.79,,,,1637401914.328125,1
9.0,11.4,,,,1637401914.3475695,1
9.0,10.57,,,2190587.0,1637401914.367014,1
9.0,10.17,,,,1637401914.3864584,1
9.0,10.14,,,2188250.0,1637401914.4059029,1
9.0,10.68,,,,1637401914.4253473,1
9.0,11.3,,,2188786.0,1637401914.4447916,1
9.0,11.3,,,,1637401914.464236,1
9.0,10.72,,,2189648.0,1637401914.4836805,1
9.0,8.715,1.218515,35.63,,1637401914.503125,1
9.0,5.98,,,2187863.0,1637401914.5225694,1
9.0,4.03,,,,1637401914.542014,1
9.0,2.07,,,2185589.0,1637401914.5614583,1
9.0,-0.9199999999999999,,,2181614.0,1637401914.5809028,1
9.0,-3.92,,,,1637401914.6003473,1
9.0,-5.66,,,2183868.0,1637401914.6197917,1
9.0,-6.93,,,,1637401914.6392362,1
9.0,-7.58,,,2214003.0,1637401914.6586804,1
9.0,-7.32,,,,1637401914.678125,1
9.0,-6.99,,,2240783.0,1637401914.6975694,1
9.0,-6.8,,,,1637401914.7170138,1
9.0,-6.84,,,2255715.0,1637401914.7364583,1
9.0,-6.82,1.217234,35.63,,1637401914.7559028,1
9.0,-6.53,,,,1637401914.7753472,1
9.0,-5.99,,,2256146.0,1637401914.7947917,1
9.0,-4.824999999999999,,,,1637401914.8142362,1
9.0,-3.41,,,2253454.0,1637401914.8336806,1
9.0,-2.37,,,,1637401914.853125,1
9.0,-1.35,,,2248589.0,1637401914.8725696,1
9.0,-0.245,,,,1637401914.8920138,1
9.0,0.05,,,2244099.0,1637401914.9114583,1
9.0,-0.42,,,,1637401914.9309027,1
9.0,-1.29,,,2240975.0,1637401914.9503472,1
9.0,-2.8499999999999996,,,,1637401914.9697917,1
9.0,-3.94,,,2238091.0,1637401914.989236,1
9.0,-3.92,1.213391,35.63,,1637401915.0086806,1
9.0,-3.16,,,2236101.0,1637401915.028125,1
9.0,-0.8049999999999999,,,,1637401915.0475695,1
9.0,2.05,,,2234671.0,1637401915.067014,1
9.0,3.67,,,,1637401915.0864584,1
9.0,4.72,,,2234304.0,1637401915.1059027,1
9.0,5.3,,,,1637401915.1253471,1
9.0,5.57,,,2234688.0,1637401915.1447916,1
9.0,6.0,,,,1637401915.164236,1
9.0,6.65,,,2234215.0,1637401915.1836805,1
9.0,7.29,,,,1637401915.203125,1
9.0,7.595,,,2232646.0,1637401915.2225695,1
9.0,7.09,,,,1637401915.242014,1
9.0,6.52,1.208267,35.65,2230611.0,1637401915.2614584,1
9.0,6.05,,,,1637401915.2809029,1
9.0,5.525,,,2228300.0,1637401915.3003473,1
9.0,4.71,,,,1637401915.3197916,1
9.0,3.68,,,2226596.0,1637401915.339236,1
9.0,2.29,,,,1637401915.3586805,1
9.0,-0.08500000000000002,,,2224606.0,1637401915.378125,1
9.0,-2.38,,,,1637401915.3975694,1
9.0,-3.77,,,2223218.0,1637401915.417014,1
9.0,-5.01,,,,1637401915.4364583,1
9.0,-6.27,,,2221891.0,1637401915.4559028,1
9.0,-6.6,,,,1637401915.4753473,1
9.0,-6.19,,,2221759.0,1637401915.4947917,1
9.0,-5.56,1.213391,35.65,,1637401915.5142362,1
9.0,-4.88,,,2222082.0,1637401915.5336804,1
9.0,-4.7,,,,1637401915.553125,1
9.0,-4.77,,,2222100.0,1637401915.5725694,1
9.0,-4.75,,,,1637401915.5920138,1
9.0,-4.505,,,2222902.0,1637401915.6114583,1
9.0,-4.31,,,,1637401915.6309028,1
9.0,-4.42,,,2223158.0,1637401915.6503472,1
9.0,-4.77,,,,1637401915.6697917,1
9.0,-5.595000000000001,,,2223530.0,1637401915.6892362,1
9.0,-6.48,,,,1637401915.7086806,1
9.0,-6.91,,,2223952.0,1637401915.728125,1
9.0,-7.09,,,,1637401915.7475696,1
9.0,-6.710000000000001,1.213391,35.65,2224127.0,1637401915.7670138,1
9.0,-5.82,,,,1637401915.7864583,1
9.0,-5.18,,,2223990.0,1637401915.8059027,1
9.0,-4.67,,,,1637401915.8253472,1
9.0,-4.21,,,,1637401915.8447917,1
9.0,-3.85,,,2223056.0,1637401915.864236,1
9.0,-3.61,,,,1637401915.8836806,1
9.0,-3.43,,,2220940.0,1637401915.903125,1
9.0,-3.4050000000000002,,,,1637401915.9225695,1
9.0,-3.44,,,2219354.0,1637401915.942014,1
9.0,-3.17,,,,1637401915.9614584,1
9.0,-2.46,,,2217769.0,1637401915.9809027,1
9.0,-0.7999999999999999,1.210829,35.65,,1637401916.0003471,1
9.0,0.67,,,2216927.0,1637401916.0197916,1
9.0,0.95,,,,1637401916.039236,1
9.0,0.62,,,2216927.0,1637401916.0586805,1
9.0,-0.06,,,,1637401916.078125,1
9.0,-0.665,,,2216065.0,1637401916.0975695,1
9.0,-0.02,,,,1637401916.117014,1
9.0,1.26,,,2215555.0,1637401916.1364584,1
9.0,2.76,,,,1637401916.1559029,1
9.0,4.4,,,2215408.0,1637401916.1753473,1
9.0,4.69,,,,1637401916.1947916,1
9.0,4.01,,,2215247.0,1637401916.214236,1
9.0,3.03,,,,1637401916.2336805,1
9.0,1.745,1.205705,35.65,2215079.0,1637401916.253125,1
9.0,1.08,,,,1637401916.2725694,1
9.0,0.95,,,2214782.0,1637401916.292014,1
9.0,0.82,,,,1637401916.3114583,1
9.0,0.21,,,2214769.0,1637401916.3309028,1
9.0,-0.82,,,,1637401916.3503473,1
9.0,-1.54,,,2214964.0,1637401916.3697917,1
9.0,-2.04,,,,1637401916.3892362,1
9.0,-2.21,,,2215122.0,1637401916.4086804,1
9.0,-2.27,,,,1637401916.428125,1
9.0,-2.65,,,2216180.0,1637401916.4475694,1
9.0,-3.45,,,,1637401916.4670138,1
9.0,-4.955,,,2215884.0,1637401916.4864583,1
9.0,-5.82,1.209548,35.65,,1637401916.5059028,1
9.0,-5.52,,,2216787.0,1637401916.5253472,1
9.0,-4.6,,,,1637401916.5447917,1
9.0,-2.995,,,2220380.0,1637401916.5642362,1
9.0,-2.18,,,,1637401916.5836806,1
9.0,-2.48,,,,1637401916.603125,1
9.0,-3.24,,,2223305.0,1637401916.6225696,1
9.0,-4.4350000000000005,,,,1637401916.6420138,1
9.0,-4.94,,,2224000.0,1637401916.6614583,1
9.0,-4.61,,,,1637401916.6809027,1
9.0,-3.87,,,2224967.0,1637401916.7003472,1
9.0,-2.335,,,,1637401916.7197917,1
9.0,-0.72,,,2229597.0,1637401916.739236,1
9.0,0.25,1.214672,35.65,,1637401916.7586806,1
9.0,0.98,,,2239812.0,1637401916.778125,1
9.0,1.255,,,,1637401916.7975695,1
9.0,0.54,,,2250682.0,1637401916.817014,1
9.0,-0.33,,,,1637401916.8364584,1
9.0,-0.93,,,2259578.0,1637401916.8559027,1
9.0,-0.185,,,,1637401916.8753471,1
9.0,2.34,,,2269045.0,1637401916.8947916,1
9.0,4.42,,,,1637401916.914236,1
9.0,5.87,,,2272839.0,1637401916.9336805,1
9.0,6.21,,,,1637401916.953125,1
9.0,5.1899999999999995,,,2271028.0,1637401916.9725695,1
9.0,4.7,,,,1637401916.992014,1
9.0,6.15,1.210829,35.65,2272419.0,1637401917.0114584,1
9.0,9.23,,,,1637401917.0309029,1
9.0,15.66,,,2283975.0,1637401917.0503473,1
9.0,21.54,,,,1637401917.0697916,1
9.0,23.76,,,2290441.0,1637401917.089236,1
9.0,24.22,,,,1637401917.1086805,1
9.0,21.525,,,2292151.0,1637401917.128125,1
9.0,16.1,,,,1637401917.1475694,1
9.0,11.4,,,2288257.0,1637401917.167014,1
9.0,6.58,,,,1637401917.1864583,1
9.0,0.7049999999999998,,,2281814.0,1637401917.2059028,1
9.0,-2.67,,,,1637401917.2253473,1
9.0,-3.07,,,2273434.0,1637401917.2447917,1
9.0,-2.44,1.209548,35.65,,1637401917.2642362,1
9.0,-0.765,,,2268194.0,1637401917.2836804,1
9.0,0.45,,,,1637401917.303125,1
9.0,0.6,,,2263052.0,1637401917.3225694,1
9.0,0.35,,,,1637401917.3420138,1
9.0,-0.245,,,2259315.0,1637401917.3614583,1
9.0,-0.48,,,,1637401917.3809028,1
9.0,-0.21,,,,1637401917.4003472,1
9.0,0.37,,,2256862.0,1637401917.4197917,1
9.0,1.56,,,,1637401917.4392362,1
9.0,2.61,,,2254779.0,1637401917.4586806,1
9.0,2.93,,,,1637401917.478125,1
9.0,2.8,,,2254080.0,1637401917.4975696,1
9.0,1.715,1.208267,35.65,,1637401917.5170138,1
9.0,0.08,,,2253364.0,1637401917.5364583,1
9.0,-0.96,,,,1637401917.5559027,1
9.0,-1.64,,,2252763.0,1637401917.5753472,1
9.0,-1.6,,,,1637401917.5947917,1
9.0,-0.65,,,2252139.0,1637401917.614236,1
9.0,0.15,,,,1637401917.6336806,1
9.0,0.69,,,2250917.0,1637401917.653125,1
9.0,0.44999999999999996,,,,1637401917.6725695,1
9.0,-0.8,,,2248183.0,1637401917.692014,1
9.0,-1.98,,,,1637401917.7114584,1
9.0,-3.13,,,2245237.0,1637401917.7309027,1
9.0,-4.395,1.213391,35.65,,1637401917.7503471,1
9.0,-4.93,,,2243523.0,1637401917.7697916,1
9.0,-4.74,,,,1637401917.789236,1
9.0,-4.17,,,2241542.0,1637401917.8086805,1
9.0,-3.29,,,,1637401917.828125,1
9.0,-1.705,,,2240551.0,1637401917.8475695,1
9.0,-0.05,,,,1637401917.867014,1
9.0,1.09,,,2239737.0,1637401917.8864584,1
9.0,2.33,,,,1637401917.9059029,1
9.0,4.15,,,2238657.0,1637401917.9253473,1
9.0,5.51,,,,1637401917.9447916,1
9.0,5.82,,,2238045.0,1637401917.964236,1
9.0,5.69,,,,1637401917.9836805,1
9.0,4.994999999999999,1.210829,35.65,,1637401918.003125,1
9.0,4.08,,,2237685.0,1637401918.0225694,1
9.0,3.28,,,,1637401918.042014,1
9.0,2.13,,,2237259.0,1637401918.0614583,1
9.0,-0.525,,,,1637401918.0809028,1
9.0,-3.8,,,2237533.0,1637401918.1003473,1
9.0,-5.89,,,,1637401918.1197917,1
9.0,-7.48,,,2237526.0,1637401918.1392362,1
9.0,-8.44,,,2237867.0,1637401918.1586804,1
9.0,-8.08,,,,1637401918.178125,1
9.0,-7.32,,,2238165.0,1637401918.1975694,1
9.0,-6.54,,,,1637401918.2170138,1
9.0,-6.015000000000001,,,2237715.0,1637401918.2364583,1
9.0,-6.48,1.205705,35.63,,1637401918.2559028,1
9.0,-7.44,,,2235831.0,1637401918.2753472,1
9.0,-8.67,,,,1637401918.2947917,1
9.0,-10.41,,,2233776.0,1637401918.3142362,1
9.0,-11.63,,,,1637401918.3336806,1
9.0,-12.07,,,2231733.0,1637401918.353125,1
9.0,-12.38,,,,1637401918.3725696,1
9.0,-12.98,,,2230662.0,1637401918.3920138,1
9.0,-13.81,,,,1637401918.4114583,1
9.0,-14.23,,,2230083.0,1637401918.4309027,1
9.0,-14.21,,,,1637401918.4503472,1
9.0,-12.72,,,2229750.0,1637401918.4697917,1
9.0,-9.74,,,,1637401918.489236,1
9.0,-7.14,1.204425,35.63,2229353.0,1637401918.5086806,1
9.0,-4.51,,,,1637401918.528125,1
9.0,-1.085,,,2229327.0,1637401918.5475695,1
9.0,1.69,,,,1637401918.567014,1
9.0,3.22,,,2229177.0,1637401918.5864584,1
9.0,4.62,,,,1637401918.6059027,1
9.0,6.21,,,2229299.0,1637401918.6253471,1
9.0,6.91,,,,1637401918.6447916,1
9.0,6.62,,,2229512.0,1637401918.664236,1
9.0,5.89,,,,1637401918.6836805,1
9.0,4.88,,,,1637401918.703125,1
9.0,3.51,,,2229590.0,1637401918.7225695,1
9.0,2.61,,,,1637401918.742014,1
9.0,2.36,1.209548,35.63,2230052.0,1637401918.7614584,1
9.0,2.26,,,,1637401918.7809029,1
9.0,2.21,,,2230511.0,1637401918.8003473,1
9.0,2.04,,,,1637401918.8197916,1
9.0,1.77,,,2231323.0,1637401918.839236,1
9.0,1.32,,,,1637401918.8586805,1
9.0,0.2,,,2230157.0,1637401918.878125,1
9.0,-1.29,,,,1637401918.8975694,1
9.0,-2.38,,,2228612.0,1637401918.917014,1
9.0,-3.31,,,,1637401918.9364583,1
9.0,-3.98,,,2227378.0,1637401918.9559028,1
9.0,-3.65,,,2227751.0,1637401918.9753473,1
9.0,-2.8,,,,1637401918.9947917,1
9.0,-1.73,1.206986,35.63,2230364.0,1637401919.0142362,1
9.0,-0.345,,,,1637401919.0336804,1
9.0,0.23,,,2228624.0,1637401919.053125,1
9.0,0.0,,,,1637401919.0725694,1
9.0,-0.36,,,2226565.0,1637401919.0920138,1
9.0,-0.13,,,,1637401919.1114583,1
9.0,1.57,,,2226022.0,1637401919.1309028,1
9.0,3.58,,,,1637401919.1503472,1
9.0,5.72,,,2226163.0,1637401919.1697917,1
9.0,8.16,,,,1637401919.1892362,1
9.0,9.52,,,,1637401919.2086806,1
9.0,10.03,,,2226423.0,1637401919.228125,1
9.0,10.52,,,,1637401919.2475696,1
9.0,11.215,1.200582,35.63,2225747.0,1637401919.2670138,1
9.0,11.33,,,,1637401919.2864583,1
9.0,10.8,,,2224186.0,1637401919.3059027,1
9.0,9.95,,,,1637401919.3253472,1
9.0,8.765,,,2224971.0,1637401919.3447917,1
9.0,8.31,,,,1637401919.364236,1
9.0,8.46,,,2227239.0,1637401919.3836806,1
9.0,8.65,,,,1637401919.403125,1
9.0,8.295,,,2250198.0,1637401919.4225695,1
9.0,6.92,,,,1637401919.442014,1
9.0,5.49,,,2265727.0,1637401919.4614584,1
9.0,4.06,,,,1637401919.4809027,1
9.0,2.7,1.200582,35.63,2270039.0,1637401919.5003471,1
9.0,2.56,,,,1637401919.5197916,1
9.0,3.14,,,2268666.0,1637401919.539236,1
9.0,3.82,,,,1637401919.5586805,1
9.0,4.24,,,2266147.0,1637401919.578125,1
9.0,3.845,,,,1637401919.5975695,1
9.0,2.57,,,2266147.0,1637401919.617014,1
9.0,1.49,,,,1637401919.6364584,1
9.0,0.53,,,2263045.0,1637401919.6559029,1
9.0,-0.42500000000000004,,,,1637401919.6753473,1
9.0,-0.97,,,2259626.0,1637401919.6947916,1
9.0,-1.09,,,,1637401919.714236,1
9.0,-1.01,,,2256901.0,1637401919.7336805,1
9.0,-0.44999999999999996,1.208267,35.63,,1637401919.753125,1
9.0,0.53,,,2255081.0,1637401919.7725694,1
9.0,1.32,,,,1637401919.792014,1
9.0,2.06,,,2253848.0,1637401919.8114583,1
9.0,2.795,,,,1637401919.8309028,1
9.0,2.91,,,2254255.0,1637401919.8503473,1
9.0,2.54,,,,1637401919.8697917,1
9.0,1.92,,,2254387.0,1637401919.8892362,1
9.0,0.985,,,,1637401919.9086804,1
9.0,0.56,,,2253743.0,1637401919.928125,1
9.0,0.77,,,,1637401919.9475694,1
9.0,1.24,,,2253412.0,1637401919.9670138,1
9.0,1.805,,,,1637401919.9864583,1
9.0,1.67,1.208267,35.63,2252892.0,1637401920.0059028,1
9.0,1.06,,,,1637401920.0253472,1
9.0,0.27,,,2252532.0,1637401920.0447917,1
9.0,-0.76,,,,1637401920.0642362,1
9.0,-1.46,,,2250492.0,1637401920.0836806,1
9.0,-1.93,,,,1637401920.103125,1
9.0,-2.64,,,2248137.0,1637401920.1225696,1
9.0,-4.470000000000001,,,,1637401920.1420138,1
9.0,-6.87,,,,1637401920.1614583,1
9.0,-8.54,,,2245543.0,1637401920.1809027,1
9.0,-10.01,,,,1637401920.2003472,1
9.0,-11.515,,,2243339.0,1637401920.2197917,1
9.0,-12.0,,,,1637401920.239236,1
9.0,-11.5,1.210829,35.61,2241275.0,1637401920.2586806,1
9.0,-10.48,,,,1637401920.278125,1
9.0,-8.32,,,2240136.0,1637401920.2975695,1
9.0,-6.26,,,,1637401920.317014,1
9.0,-5.28,,,2239956.0,1637401920.3364584,1
9.0,-4.73,,,,1637401920.3559027,1
9.0,-4.664999999999999,,,2240191.0,1637401920.3753471,1
9.0,-5.28,,,,1637401920.3947916,1
9.0,-5.95,,,2240082.0,1637401920.414236,1
9.0,-6.62,,,2240321.0,1637401920.4336805,1
9.0,-7.08,,,,1637401920.453125,1
9.0,-7.1850000000000005,,,2240756.0,1637401920.4725695,1
9.0,-6.85,,,,1637401920.492014,1
9.0,-6.49,1.203144,35.61,2241092.0,1637401920.5114584,1
9.0,-6.02,,,,1637401920.5309029,1
9.0,-4.67,,,2241340.0,1637401920.5503473,1
9.0,-2.41,,,,1637401920.5697916,1
9.0,-0.47,,,,1637401920.589236,1
9.0,1.35,,,2242117.0,1637401920.6086805,1
9.0,3.01,,,,1637401920.628125,1
9.0,3.2,,,2242585.0,1637401920.6475694,1
9.0,2.57,,,,1637401920.667014,1
9.0,1.72,,,2242305.0,1637401920.6864583,1
9.0,0.585,,,,1637401920.7059028,1
9.0,-0.19,,,2240767.0,1637401920.7253473,1
9.0,-0.5,,,,1637401920.7447917,1
9.0,-0.72,1.201863,35.61,2239295.0,1637401920.7642362,1
9.0,-0.95,,,,1637401920.7836804,1
9.0,-1.08,,,2238156.0,1637401920.803125,1
9.0,-1.17,,,,1637401920.8225694,1
9.0,-1.34,,,2237042.0,1637401920.8420138,1
9.0,-1.94,,,,1637401920.8614583,1
9.0,-2.74,,,2236760.0,1637401920.8809028,1
9.0,-3.12,,,,1637401920.9003472,1
9.0,-3.14,,,2237116.0,1637401920.9197917,1
9.0,-2.485,,,,1637401920.9392362,1
9.0,-1.61,,,2237090.0,1637401920.9586806,1
9.0,-1.23,,,,1637401920.978125,1
9.0,-1.03,,,2237107.0,1637401920.9975696,1
9.0,-0.53,1.210829,35.61,,1637401921.0170138,1
9.0,0.61,,,2237458.0,1637401921.0364583,1
9.0,1.64,,,,1637401921.0559027,1
9.0,2.43,,,2237667.0,1637401921.0753472,1
9.0,2.2800000000000002,,,,1637401921.0947917,1
9.0,0.87,,,2238080.0,1637401921.114236,1
9.0,-0.33,,,,1637401921.1336806,1
9.0,-1.19,,,2238545.0,1637401921.153125,1
9.0,-1.56,,,,1637401921.1725695,1
9.0,-1.46,,,2239188.0,1637401921.192014,1
9.0,-1.42,,,,1637401921.2114584,1
9.0,-1.45,,,,1637401921.2309027,1
9.0,-1.1300000000000001,1.205705,35.59,2240038.0,1637401921.2503471,1
9.0,-0.2,,,,1637401921.2697916,1
9.0,0.58,,,2240654.0,1637401921.289236,1
9.0,1.07,,,,1637401921.3086805,1
9.0,1.04,,,2241046.0,1637401921.328125,1
9.0,0.06,,,,1637401921.3475695,1
9.0,-1.01,,,2244686.0,1637401921.367014,1
9.0,-1.19,,,,1637401921.3864584,1
9.0,-0.83,,,2249559.0,1637401921.4059029,1
9.0,0.31,,,,1637401921.4253473,1
9.0,1.28,,,2253781.0,1637401921.4447916,1
9.0,1.49,,,,1637401921.464236,1
9.0,1.41,,,2258598.0,1637401921.4836805,1
9.0,1.1400000000000001,1.200582,35.59,,1637401921.503125,1
9.0,1.16,,,2262534.0,1637401921.5225694,1
9.0,1.61,,,,1637401921.542014,1
9.0,2.52,,,2264761.0,1637401921.5614583,1
9.0,4.8149999999999995,,,,1637401921.5809028,1
9.0,7.7,,,2265705.0,1637401921.6003473,1
9.0,9.57,,,,1637401921.6197917,1
9.0,11.03,,,2266379.0,1637401921.6392362,1
9.0,12.015,,,,1637401921.6586804,1
9.0,11.76,,,2266584.0,1637401921.678125,1
9.0,10.9,,,,1637401921.6975694,1
9.0,9.63,,,2265911.0,1637401921.7170138,1
9.0,7.18,,,,1637401921.7364583,1
9.0,4.5,1.199301,35.59,2264608.0,1637401921.7559028,1
9.0,2.79,,,,1637401921.7753472,1
9.0,1.24,,,2263072.0,1637401921.7947917,1
9.0,-0.5950000000000001,,,,1637401921.8142362,1
9.0,-1.75,,,2272492.0,1637401921.8336806,1
9.0,-1.89,,,,1637401921.853125,1
9.0,-1.49,,,2286650.0,1637401921.8725696,1
9.0,-0.3,,,,1637401921.8920138,1
9.0,0.61,,,2293103.0,1637401921.9114583,1
9.0,0.55,,,,1637401921.9309027,1
9.0,-0.02,,,,1637401921.9503472,1
9.0,-1.175,,,2292546.0,1637401921.9697917,1
9.0,-1.99,,,,1637401921.989236,1
9.0,-2.25,1.205705,35.59,2290043.0,1637401922.0086806,1
9.0,-2.46,,,,1637401922.028125,1
9.0,-2.92,,,2287696.0,1637401922.0475695,1
9.0,-3.34,,,2286445.0,1637401922.067014,1
9.0,-3.36,,,,1637401922.0864584,1
9.0,-3.09,,,2289392.0,1637401922.1059027,1
9.0,-2.0,,,,1637401922.1253471,1
9.0,-0.03,,,2290815.0,1637401922.1447916,1
9.0,2.03,,,,1637401922.164236,1
9.0,4.6,,,,1637401922.1836805,1
9.0,7.43,,,2290651.0,1637401922.203125,1
9.0,11.195,,,,1637401922.2225695,1
9.0,13.87,,,2290586.0,1637401922.242014,1
9.0,14.99,1.208267,35.59,,1637401922.2614584,1
9.0,15.79,,,2290318.0,1637401922.2809029,1
9.0,16.37,,,,1637401922.3003473,1
9.0,15.88,,,2289612.0,1637401922.3197916,1
9.0,14.58,,,,1637401922.339236,1
9.0,12.64,,,2288935.0,1637401922.3586805,1
9.0,9.36,,,,1637401922.378125,1
9.0,6.34,,,2289012.0,1637401922.3975694,1
9.0,4.42,,,,1637401922.417014,1
9.0,2.28,,,2288603.0,1637401922.4364583,1
9.0,-1.69,,,,1637401922.4559028,1
9.0,-5.96,,,2289186.0,1637401922.4753473,1
9.0,-8.38,,,,1637401922.4947917,1
9.0,-10.14,1.200582,35.59,2289792.0,1637401922.5142362,1
9.0,-11.555,,,,1637401922.5336804,1
9.0,-12.29,,,2288764.0,1637401922.553125,1
9.0,-12.66,,,,1637401922.5725694,1
9.0,-12.99,,,2287382.0,1637401922.5920138,1
9.0,-13.19,,,,1637401922.6114583,1
9.0,-12.9,,,2286364.0,1637401922.6309028,1
9.0,-12.35,,,,1637401922.6503472,1
9.0,-11.63,,,2285985.0,1637401922.6697917,1
9.0,-10.385000000000002,,,,1637401922.6892362,1
9.0,-9.06,,,2285069.0,1637401922.7086806,1
9.0,-8.05,,,,1637401922.728125,1
9.0,-6.84,,,2284401.0,1637401922.7475696,1
9.0,-4.51,1.203144,35.59,,1637401922.7670138,1
9.0,-1.86,,,2283781.0,1637401922.7864583,1
9.0,-0.25,,,,1637401922.8059027,1
9.0,1.04,,,2283441.0,1637401922.8253472,1
9.0,2.335,,,,1637401922.8447917,1
9.0,3.43,,,2283322.0,1637401922.864236,1
9.0,4.26,,,,1637401922.8836806,1
9.0,5.07,,,,1637401922.903125,1
9.0,5.57,,,2283149.0,1637401922.9225695,1
9.0,4.83,,,2283029.0,1637401922.942014,1
9.0,3.53,,,,1637401922.9614584,1
9.0,1.86,,,2283115.0,1637401922.9809027,1
9.0,-0.7050000000000001,1.210829,35.59,,1637401923.0003471,1
9.0,-2.96,,,2283213.0,1637401923.0197916,1
9.0,-4.11,,,,1637401923.039236,1
9.0,-4.95,,,2283634.0,1637401923.0586805,1
9.0,-5.42,,,,1637401923.078125,1
9.0,-5.6850000000000005,,,2283995.0,1637401923.0975695,1
9.0,-5.97,,,,1637401923.117014,1
9.0,-6.5,,,2283049.0,1637401923.1364584,1
9.0,-7.37,,,,1637401923.1559029,1
9.0,-8.934999999999999,,,2281891.0,1637401923.1753473,1
9.0,-10.17,,,,1637401923.1947916,1
9.0,-10.48,,,2280282.0,1637401923.214236,1
9.0,-10.33,,,,1637401923.2336805,1
9.0,-9.34,1.210829,35.59,2279903.0,1637401923.253125,1
9.0,-7.75,,,,1637401923.2725694,1
9.0,-6.45,,,2279650.0,1637401923.292014,1
9.0,-5.17,,,,1637401923.3114583,1
9.0,-3.7649999999999997,,,2279575.0,1637401923.3309028,1
9.0,-3.12,,,,1637401923.3503473,1
9.0,-3.02,,,,1637401923.3697917,1
9.0,-2.85,,,2279710.0,1637401923.3892362,1
9.0,-1.975,,,,1637401923.4086804,1
9.0,-0.67,,,2279898.0,1637401923.428125,1
9.0,0.08,,,,1637401923.4475694,1
9.0,0.47,,,2280055.0,1637401923.4670138,1
9.0,0.53,,,,1637401923.4864583,1
9.0,0.63,1.204425,35.59,2280117.0,1637401923.5059028,1
9.0,0.96,,,,1637401923.5253472,1
9.0,1.4,,,2280346.0,1637401923.5447917,1
9.0,1.705,,,,1637401923.5642362,1
9.0,1.41,,,2280601.0,1637401923.5836806,1
9.0,0.95,,,,1637401923.603125,1
9.0,0.51,,,2281172.0,1637401923.6225696,1
9.0,0.009999999999999995,,,,1637401923.6420138,1
9.0,-0.33,,,2281765.0,1637401923.6614583,1
9.0,-0.39,,,,1637401923.6809027,1
9.0,-0.18,,,2282351.0,1637401923.7003472,1
9.0,0.8899999999999999,,,,1637401923.7197917,1
9.0,2.57,,,2281750.0,1637401923.739236,1
9.0,3.68,1.201863,35.59,,1637401923.7586806,1
9.0,4.42,,,2279705.0,1637401923.778125,1
9.0,4.46,,,,1637401923.7975695,1
9.0,3.53,,,2277363.0,1637401923.817014,1
9.0,2.57,,,,1637401923.8364584,1
9.0,1.66,,,2276041.0,1637401923.8559027,1
9.0,0.815,,,,1637401923.8753471,1
9.0,0.6,,,2276444.0,1637401923.8947916,1
9.0,0.71,,,,1637401923.914236,1
9.0,0.72,,,2276570.0,1637401923.9336805,1
9.0,0.41,,,,1637401923.953125,1
9.0,-0.9,,,2275754.0,1637401923.9725695,1
9.0,-2.75,,,,1637401923.992014,1
9.0,-3.91,1.209548,35.59,2277502.0,1637401924.0114584,1
9.0,-4.69,,,,1637401924.0309029,1
9.0,-4.57,,,2282816.0,1637401924.0503473,1
9.0,-3.08,,,,1637401924.0697916,1
9.0,-1.31,,,,1637401924.089236,1
9.0,0.72,,,2295991.0,1637401924.1086805,1
9.0,3.38,,,,1637401924.128125,1
9.0,4.86,,,2303383.0,1637401924.1475694,1
9.0,4.86,,,,1637401924.167014,1
9.0,4.3,,,2306370.0,1637401924.1864583,1
9.0,3.1799999999999997,,,,1637401924.2059028,1
9.0,2.57,,,2305892.0,1637401924.2253473,1
9.0,2.74,,,,1637401924.2447917,1
9.0,3.33,1.208267,35.57,2304500.0,1637401924.2642362,1
9.0,4.675000000000001,,,,1637401924.2836804,1
9.0,6.07,,,2302679.0,1637401924.303125,1
9.0,6.72,,,,1637401924.3225694,1
9.0,6.95,,,2301944.0,1637401924.3420138,1
9.0,6.22,,,,1637401924.3614583,1
9.0,4.61,,,2301279.0,1637401924.3809028,1
9.0,3.32,,,,1637401924.4003472,1
9.0,2.21,,,2301279.0,1637401924.4197917,1
9.0,1.2850000000000001,,,,1637401924.4392362,1
9.0,1.15,,,2299755.0,1637401924.4586806,1
9.0,1.4,,,,1637401924.478125,1
9.0,1.75,,,2296383.0,1637401924.4975696,1
9.0,2.285,1.206986,35.57,,1637401924.5170138,1
9.0,2.71,,,2294515.0,1637401924.5364583,1
9.0,2.81,,,,1637401924.5559027,1
9.0,2.64,,,2293583.0,1637401924.5753472,1
9.0,1.685,,,,1637401924.5947917,1
9.0,0.21,,,2292909.0,1637401924.614236,1
9.0,-0.69,,,,1637401924.6336806,1
9.0,-1.06,,,2292455.0,1637401924.653125,1
9.0,-0.08500000000000002,,,,1637401924.6725695,1
9.0,2.12,,,2291999.0,1637401924.692014,1
9.0,3.72,,,,1637401924.7114584,1
9.0,4.81,,,2291297.0,1637401924.7309027,1
9.0,5.02,1.201863,35.57,,1637401924.7503471,1
9.0,4.13,,,2290514.0,1637401924.7697916,1
9.0,3.24,,,,1637401924.789236,1
9.0,2.31,,,,1637401924.8086805,1
9.0,1.33,,,2290433.0,1637401924.828125,1
9.0,-0.36,,,,1637401924.8475695,1
9.0,-2.03,,,2290695.0,1637401924.867014,1
9.0,-2.83,,,,1637401924.8864584,1
9.0,-3.15,,,2291034.0,1637401924.9059029,1
9.0,-2.825,,,,1637401924.9253473,1
9.0,-2.05,,,2291032.0,1637401924.9447916,1
9.0,-1.36,,,,1637401924.964236,1
9.0,-0.39,,,2291367.0,1637401924.9836805,1
9.0,2.465,1.199301,35.57,,1637401925.003125,1
9.0,7.31,,,2290824.0,1637401925.0225694,1
9.0,11.71,,,,1637401925.042014,1
9.0,16.31,,,2289337.0,1637401925.0614583,1
9.0,21.46,,,,1637401925.0809028,1
9.0,23.13,,,2287930.0,1637401925.1003473,1
9.0,21.71,,,,1637401925.1197917,1
9.0,19.0,,,2286754.0,1637401925.1392362,1
9.0,14.54,,,,1637401925.1586804,1
9.0,11.5,,,2286043.0,1637401925.178125,1
9.0,10.86,,,,1637401925.1975694,1
9.0,10.94,,,2285803.0,1637401925.2170138,1
9.0,11.025,,,,1637401925.2364583,1
9.0,9.8,1.208267,35.57,2285862.0,1637401925.2559028,1
9.0,7.87,,,,1637401925.2753472,1
9.0,5.48,,,2285891.0,1637401925.2947917,1
9.0,2.5,,,,1637401925.3142362,1
9.0,1.32,,,2286398.0,1637401925.3336806,1
9.0,1.83,,,,1637401925.353125,1
9.0,2.82,,,2286618.0,1637401925.3725696,1
9.0,4.025,,,,1637401925.3920138,1
9.0,4.27,,,,1637401925.4114583,1
9.0,3.78,,,2287058.0,1637401925.4309027,1
9.0,2.89,,,,1637401925.4503472,1
9.0,0.7200000000000001,,,2287737.0,1637401925.4697917,1
9.0,-2.3,,,,1637401925.489236,1
9.0,-4.66,1.209548,35.57,2287985.0,1637401925.5086806,1
9.0,-6.94,,,,1637401925.528125,1
9.0,-9.655,,,2288656.0,1637401925.5475695,1
9.0,-11.76,,,,1637401925.567014,1
9.0,-13.07,,,2289204.0,1637401925.5864584,1
9.0,-14.48,,,,1637401925.6059027,1
9.0,-16.58,,,2288645.0,1637401925.6253471,1
9.0,-18.32,,,,1637401925.6447916,1
9.0,-19.23,,,2286894.0,1637401925.664236,1
9.0,-20.16,,,,1637401925.6836805,1
9.0,-21.26,,,2284858.0,1637401925.703125,1
9.0,-23.04,,,,1637401925.7225695,1
9.0,-24.23,,,2283770.0,1637401925.742014,1
9.0,-24.24,1.201863,35.57,,1637401925.7614584,1
9.0,-23.74,,,2282722.0,1637401925.7809029,1
9.0,-22.869999999999997,,,,1637401925.8003473,1
9.0,-22.53,,,2283148.0,1637401925.8197916,1
9.0,-22.49,,,,1637401925.839236,1
9.0,-22.07,,,2284124.0,1637401925.8586805,1
9.0,-19.615000000000002,,,,1637401925.878125,1
9.0,-15.08,,,2284387.0,1637401925.8975694,1
9.0,-11.04,,,,1637401925.917014,1
9.0,-6.75,,,2284920.0,1637401925.9364583,1
9.0,-0.73,,,,1637401925.9559028,1
9.0,4.19,,,2285491.0,1637401925.9753473,1
9.0,6.47,,,,1637401925.9947917,1
9.0,7.92,1.204425,35.57,2286246.0,1637401926.0142362,1
9.0,8.71,,,,1637401926.0336804,1
9.0,8.52,,,2288929.0,1637401926.053125,1
9.0,8.07,,,,1637401926.0725694,1
9.0,7.56,,,2293281.0,1637401926.0920138,1
9.0,7.1899999999999995,,,,1637401926.1114583,1
9.0,7.66,,,2301411.0,1637401926.1309028,1
9.0,8.62,,,,1637401926.1503472,1
9.0,9.83,,,2310007.0,1637401926.1697917,1
9.0,11.469999999999999,,,,1637401926.1892362,1
9.0,12.34,,,,1637401926.2086806,1
9.0,12.29,,,2320760.0,1637401926.228125,1
9.0,11.79,,,,1637401926.2475696,1
9.0,10.105,1.205705,35.55,2330934.0,1637401926.2670138,1
9.0,7.3,,,,1637401926.2864583,1
9.0,4.65,,,2339238.0,1637401926.3059027,1
9.0,1.56,,,,1637401926.3253472,1
9.0,-3.5050000000000003,,,2340368.0,1637401926.3447917,1
9.0,-8.76,,,,1637401926.364236,1
9.0,-12.32,,,2344368.0,1637401926.3836806,1
9.0,-15.73,,,,1637401926.403125,1
9.0,-19.525,,,2349002.0,1637401926.4225695,1
9.0,-20.93,,,,1637401926.442014,1
9.0,-20.07,,,2351406.0,1637401926.4614584,1
9.0,-18.25,,,,1637401926.4809027,1
9.0,-14.95,1.205705,35.55,2353284.0,1637401926.5003471,1
9.0,-11.86,,,,1637401926.5197916,1
9.0,-9.85,,,2351112.0,1637401926.539236,1
9.0,-7.7,,,,1637401926.5586805,1
9.0,-5.4,,,2346158.0,1637401926.578125,1
9.0,-2.4499999999999997,,,,1637401926.5975695,1
9.0,-0.72,,,2341892.0,1637401926.617014,1
9.0,-0.32,,,,1637401926.6364584,1
9.0,-0.06,,,2337607.0,1637401926.6559029,1
9.0,0.945,,,,1637401926.6753473,1
9.0,2.54,,,2334732.0,1637401926.6947916,1
9.0,3.47,,,,1637401926.714236,1
9.0,3.87,,,,1637401926.7336805,1
9.0,3.26,1.205705,35.55,2331005.0,1637401926.753125,1
9.0,1.99,,,,1637401926.7725694,1
9.0,1.17,,,2326855.0,1637401926.792014,1
9.0,0.6,,,,1637401926.8114583,1
9.0,0.05,,,2323675.0,1637401926.8309028,1
9.0,-0.74,,,,1637401926.8503473,1
9.0,-1.89,,,2320906.0,1637401926.8697917,1
9.0,-3.82,,,,1637401926.8892362,1
9.0,-8.36,,,2318435.0,1637401926.9086804,1
9.0,-13.94,,,,1637401926.928125,1
9.0,-17.62,,,2317679.0,1637401926.9475694,1
9.0,-20.71,,,,1637401926.9670138,1
9.0,-23.865000000000002,,,2318964.0,1637401926.9864583,1
9.0,-26.13,1.201863,35.55,,1637401927.0059028,1
9.0,-28.04,,,2319313.0,1637401927.0253472,1
9.0,-31.15,,,,1637401927.0447917,1
9.0,-39.629999999999995,,,2319637.0,1637401927.0642362,1
9.0,-52.15,,,,1637401927.0836806,1
9.0,-62.38,,,2319164.0,1637401927.103125,1
9.0,-72.71,,,,1637401927.1225696,1
9.0,-85.33,,,2319000.0,1637401927.1420138,1
9.0,-92.41,,,,1637401927.1614583,1
9.0,-92.64,,,2318779.0,1637401927.1809027,1
9.0,-89.78,,,,1637401927.2003472,1
9.0,-81.89500000000001,,,2318609.0,1637401927.2197917,1
9.0,-73.45,,,,1637401927.239236,1
9.0,-68.96,1.201863,35.59,2318935.0,1637401927.2586806,1
9.0,-65.48,,,,1637401927.278125,1
9.0,-60.325,,,2318124.0,1637401927.2975695,1
9.0,-52.35,,,,1637401927.317014,1
9.0,-43.55,,,2315638.0,1637401927.3364584,1
9.0,-31.59,,,,1637401927.3559027,1
9.0,-8.075000000000001,,,2312832.0,1637401927.3753471,1
9.0,18.85,,,,1637401927.3947916,1
9.0,36.88,,,2310142.0,1637401927.414236,1
9.0,53.01,,,,1637401927.4336805,1
9.0,65.83,,,2307714.0,1637401927.453125,1
9.0,76.54,,,,1637401927.4725695,1
9.0,79.06,,,,1637401927.492014,1
9.0,76.74,1.203144,35.59,2305916.0,1637401927.5114584,1
9.0,72.93,,,,1637401927.5309029,1
9.0,66.56,,,2305109.0,1637401927.5503473,1
9.0,61.02,,,,1637401927.5697916,1
9.0,58.34,,,2304587.0,1637401927.589236,1
9.0,56.5,,,,1637401927.6086805,1
9.0,55.22,,,2304085.0,1637401927.628125,1
9.0,54.72,,,,1637401927.6475694,1
9.0,54.35,,,2303786.0,1637401927.667014,1
9.0,53.61,,,,1637401927.6864583,1
9.0,51.61,,,2303556.0,1637401927.7059028,1
9.0,48.93,,,,1637401927.7253473,1
9.0,47.0,,,2302889.0,1637401927.7447917,1
9.0,45.17,1.21211,35.59,,1637401927.7642362,1
9.0,42.709999999999994,,,2303235.0,1637401927.7836804,1
9.0,40.22,,,,1637401927.803125,1
9.0,38.21,,,2303280.0,1637401927.8225694,1
9.0,35.86,,,,1637401927.8420138,1
9.0,32.06,,,2302184.0,1637401927.8614583,1
9.0,28.64,,,,1637401927.8809028,1
9.0,26.86,,,2298858.0,1637401927.9003472,1
9.0,25.36,,,,1637401927.9197917,1
9.0,23.135,,,2295398.0,1637401927.9392362,1
9.0,20.64,,,,1637401927.9586806,1
9.0,18.94,,,2292672.0,1637401927.978125,1
9.0,17.48,,,,1637401927.9975696,1
9.0,16.105,1.209548,35.59,2290483.0,1637401928.0170138,1
9.0,15.4,,,,1637401928.0364583,1
9.0,15.13,,,2289425.0,1637401928.0559027,1
9.0,14.97,,,,1637401928.0753472,1
9.0,15.190000000000001,,,2289215.0,1637401928.0947917,1
9.0,16.35,,,,1637401928.114236,1
9.0,17.87,,,2289348.0,1637401928.1336806,1
9.0,19.86,,,,1637401928.153125,1
9.0,23.015,,,2288509.0,1637401928.1725695,1
9.0,25.69,,,,1637401928.192014,1
9.0,26.93,,,2287036.0,1637401928.2114584,1
9.0,27.84,,,,1637401928.2309027,1
9.0,28.895,1.214672,35.55,2288768.0,1637401928.2503471,1
9.0,29.88,,,,1637401928.2697916,1
9.0,30.43,,,,1637401928.289236,1
9.0,30.76,,,2287943.0,1637401928.3086805,1
9.0,30.73,,,,1637401928.328125,1
9.0,29.805,,,2287723.0,1637401928.3475695,1
9.0,27.96,,,,1637401928.367014,1
9.0,26.15,,,2289540.0,1637401928.3864584,1
9.0,23.92,,,,1637401928.4059029,1
9.0,19.700000000000003,,,2289457.0,1637401928.4253473,1
9.0,14.53,,,,1637401928.4447916,1
9.0,10.43,,,2287201.0,1637401928.464236,1
9.0,5.97,,,,1637401928.4836805,1
9.0,-0.98,1.218515,35.55,2284624.0,1637401928.503125,1
9.0,-7.49,,,,1637401928.5225694,1
9.0,-11.17,,,2293816.0,1637401928.542014,1
9.0,-14.21,,,,1637401928.5614583,1
9.0,-17.439999999999998,,,2304244.0,1637401928.5809028,1
9.0,-19.56,,,,1637401928.6003473,1
9.0,-20.42,,,2309876.0,1637401928.6197917,1
9.0,-21.05,,,,1637401928.6392362,1
9.0,-21.735,,,2311050.0,1637401928.6586804,1
9.0,-22.14,,,,1637401928.678125,1
9.0,-21.99,,,2310267.0,1637401928.6975694,1
9.0,-21.25,,,,1637401928.7170138,1
9.0,-18.665,,,2309513.0,1637401928.7364583,1
9.0,-14.8,1.231324,35.55,,1637401928.7559028,1
9.0,-11.83,,,2308420.0,1637401928.7753472,1
9.0,-9.05,,,,1637401928.7947917,1
9.0,-5.98,,,2306455.0,1637401928.8142362,1
9.0,-4.31,,,,1637401928.8336806,1
9.0,-4.01,,,2304797.0,1637401928.853125,1
9.0,-4.02,,,,1637401928.8725696,1
9.0,-3.8449999999999998,,,,1637401928.8920138,1
9.0,-2.72,,,2302365.0,1637401928.9114583,1
9.0,-1.09,,,,1637401928.9309027,1
9.0,1.0,,,2300212.0,1637401928.9503472,1
9.0,4.075,,,,1637401928.9697917,1
9.0,6.03,,,2297381.0,1637401928.989236,1
9.0,6.3,1.230043,35.55,,1637401929.0086806,1
9.0,6.02,,,2294065.0,1637401929.028125,1
9.0,5.595000000000001,,,,1637401929.0475695,1
9.0,5.91,,,2290778.0,1637401929.067014,1
9.0,6.67,,,,1637401929.0864584,1
9.0,7.58,,,2287917.0,1637401929.1059027,1
9.0,8.565,,,,1637401929.1253471,1
9.0,8.85,,,2285847.0,1637401929.1447916,1
9.0,8.51,,,,1637401929.164236,1
9.0,7.82,,,2285200.0,1637401929.1836805,1
9.0,6.82,,,,1637401929.203125,1
9.0,4.970000000000001,,,2285496.0,1637401929.2225695,1
9.0,3.1,,,,1637401929.242014,1
9.0,1.96,1.235167,35.57,2285744.0,1637401929.2614584,1
9.0,0.81,,,,1637401929.2809029,1
9.0,-1.1600000000000001,,,2285902.0,1637401929.3003473,1
9.0,-3.31,,,,1637401929.3197916,1
9.0,-4.64,,,2286433.0,1637401929.339236,1
9.0,-5.72,,,,1637401929.3586805,1
9.0,-7.125,,,2286807.0,1637401929.378125,1
9.0,-8.75,,,,1637401929.3975694,1
9.0,-10.04,,,2286960.0,1637401929.417014,1
9.0,-11.31,,,,1637401929.4364583,1
9.0,-12.67,,,,1637401929.4559028,1
9.0,-13.35,,,,1637401929.4753473,1
9.0,-13.53,,,2287015.0,1637401929.4947917,1
9.0,-13.63,1.231324,35.57,,1637401929.5142362,1
9.0,-13.67,,,2287854.0,1637401929.5336804,1
9.0,-13.65,,,,1637401929.553125,1
9.0,-13.7,,,2286096.0,1637401929.5725694,1
9.0,-13.79,,,,1637401929.5920138,1
9.0,-13.71,,,2282337.0,1637401929.6114583,1
9.0,-12.8,,,,1637401929.6309028,1
9.0,-11.56,,,2278162.0,1637401929.6503472,1
9.0,-10.18,,,,1637401929.6697917,1
9.0,-9.235,,,2274808.0,1637401929.6892362,1
9.0,-10.22,,,,1637401929.7086806,1
9.0,-11.92,,,2272940.0,1637401929.728125,1
9.0,-13.64,,,,1637401929.7475696,1
9.0,-14.72,1.231324,35.57,,1637401929.7670138,1
9.0,-13.73,,,2271899.0,1637401929.7864583,1
9.0,-12.07,,,,1637401929.8059027,1
9.0,-10.24,,,2271478.0,1637401929.8253472,1
9.0,-8.165000000000001,,,,1637401929.8447917,1
9.0,-6.95,,,2271167.0,1637401929.864236,1
9.0,-6.56,,,,1637401929.8836806,1
9.0,-6.39,,,2270878.0,1637401929.903125,1
9.0,-6.67,,,,1637401929.9225695,1
9.0,-7.65,,,2270625.0,1637401929.942014,1
9.0,-8.64,,,,1637401929.9614584,1
9.0,-9.51,,,2270556.0,1637401929.9809027,1
9.0,-9.620000000000001,1.233886,35.57,,1637401930.0003471,1
9.0,-7.97,,,2270533.0,1637401930.0197916,1
9.0,-5.82,,,,1637401930.039236,1
9.0,-3.4,,,2270929.0,1637401930.0586805,1
9.0,-1.24,,,,1637401930.078125,1
9.0,0.52,,,2269545.0,1637401930.0975695,1
9.0,0.51,,,,1637401930.117014,1
9.0,-0.34,,,2265994.0,1637401930.1364584,1
9.0,-1.39,,,,1637401930.1559029,1
9.0,-2.795,,,2262423.0,1637401930.1753473,1
9.0,-3.95,,,,1637401930.1947916,1
9.0,-4.68,,,2259055.0,1637401930.214236,1
9.0,-5.36,,,,1637401930.2336805,1
9.0,-6.02,1.244134,35.57,2257240.0,1637401930.253125,1
9.0,-5.96,,,,1637401930.2725694,1
9.0,-5.37,,,2256558.0,1637401930.292014,1
9.0,-4.43,,,,1637401930.3114583,1
9.0,-2.31,,,2256264.0,1637401930.3309028,1
9.0,0.59,,,,1637401930.3503473,1
9.0,2.94,,,2256104.0,1637401930.3697917,1
9.0,5.18,,,,1637401930.3892362,1
9.0,6.875,,,2256435.0,1637401930.4086804,1
9.0,5.8,,,,1637401930.428125,1
9.0,3.26,,,2256676.0,1637401930.4475694,1
9.0,0.01,,,,1637401930.4670138,1
9.0,-4.51,,,2258952.0,1637401930.4864583,1
9.0,-7.53,1.241572,35.57,,1637401930.5059028,1
9.0,-8.39,,,2262550.0,1637401930.5253472,1
9.0,-8.55,,,,1637401930.5447917,1
9.0,-7.59,,,2266847.0,1637401930.5642362,1
9.0,-5.54,,,,1637401930.5836806,1
9.0,-3.64,,,,1637401930.603125,1
9.0,-1.69,,,2268380.0,1637401930.6225696,1
9.0,0.35000000000000003,,,,1637401930.6420138,1
9.0,1.03,,,2268484.0,1637401930.6614583,1
9.0,0.76,,,,1637401930.6809027,1
9.0,0.31,,,2268352.0,1637401930.7003472,1
9.0,-0.27,,,,1637401930.7197917,1
9.0,-0.97,,,2268912.0,1637401930.739236,1
9.0,-1.85,1.249258,35.57,,1637401930.7586806,1
9.0,-3.1,,,2269727.0,1637401930.778125,1
9.0,-4.96,,,,1637401930.7975695,1
9.0,-5.56,,,2271301.0,1637401930.817014,1
9.0,-4.49,,,,1637401930.8364584,1
9.0,-2.34,,,2273233.0,1637401930.8559027,1
9.0,1.8599999999999999,,,,1637401930.8753471,1
9.0,5.46,,,2273580.0,1637401930.8947916,1
9.0,6.73,,,,1637401930.914236,1
9.0,7.12,,,2275241.0,1637401930.9336805,1
9.0,6.88,,,,1637401930.953125,1
9.0,5.965,,,2276224.0,1637401930.9725695,1
9.0,4.74,,,,1637401930.992014,1
9.0,3.56,1.250539,35.57,2277328.0,1637401931.0114584,1
9.0,2.0,,,,1637401931.0309029,1
9.0,-0.8200000000000001,,,2276816.0,1637401931.0503473,1
9.0,-3.47,,,,1637401931.0697916,1
9.0,-4.82,,,2275878.0,1637401931.089236,1
9.0,-5.91,,,,1637401931.1086805,1
9.0,-7.58,,,2274989.0,1637401931.128125,1
9.0,-9.52,,,,1637401931.1475694,1
9.0,-10.69,,,2272157.0,1637401931.167014,1
9.0,-11.24,,,,1637401931.1864583,1
9.0,-10.05,,,2270377.0,1637401931.2059028,1
9.0,-6.98,,,,1637401931.2253473,1
9.0,-4.39,,,2267537.0,1637401931.2447917,1
9.0,-2.21,1.247977,35.55,,1637401931.2642362,1
9.0,-0.855,,,2274884.0,1637401931.2836804,1
9.0,-1.49,,,,1637401931.303125,1
9.0,-2.55,,,2284007.0,1637401931.3225694,1
9.0,-3.25,,,,1637401931.3420138,1
9.0,-2.435,,,2289204.0,1637401931.3614583,1
9.0,0.34,,,,1637401931.3809028,1
9.0,2.85,,,2292798.0,1637401931.4003472,1
9.0,5.17,,,,1637401931.4197917,1
9.0,7.539999999999999,,,2294357.0,1637401931.4392362,1
9.0,8.77,,,,1637401931.4586806,1
9.0,9.08,,,2292704.0,1637401931.478125,1
9.0,9.14,,,,1637401931.4975696,1
9.0,8.665,1.242853,35.55,2289558.0,1637401931.5170138,1
9.0,7.58,,,,1637401931.5364583,1
9.0,6.65,,,2285055.0,1637401931.5559027,1
9.0,5.87,,,,1637401931.5753472,1
9.0,5.545,,,2279078.0,1637401931.5947917,1
9.0,6.03,,,,1637401931.614236,1
9.0,6.44,,,2275115.0,1637401931.6336806,1
9.0,6.5,,,,1637401931.653125,1
9.0,5.51,,,2270581.0,1637401931.6725695,1
9.0,3.65,,,,1637401931.692014,1
9.0,2.19,,,2265319.0,1637401931.7114584,1
9.0,0.86,,,,1637401931.7309027,1
9.0,-0.7,1.244134,35.55,2261081.0,1637401931.7503471,1
9.0,-1.82,,,,1637401931.7697916,1
9.0,-2.31,,,2257489.0,1637401931.789236,1
9.0,-2.58,,,,1637401931.8086805,1
9.0,-2.6,,,2254629.0,1637401931.828125,1
9.0,-2.15,,,,1637401931.8475695,1
9.0,-1.36,,,2253626.0,1637401931.867014,1
9.0,-0.72,,,,1637401931.8864584,1
9.0,-0.07,,,2253982.0,1637401931.9059029,1
9.0,0.9550000000000001,,,,1637401931.9253473,1
9.0,2.11,,,2254050.0,1637401931.9447916,1
9.0,2.98,,,,1637401931.964236,1
9.0,3.86,,,2253469.0,1637401931.9836805,1
9.0,4.785,1.244134,35.55,,1637401932.003125,1
9.0,4.76,,,,1637401932.0225694,1
9.0,3.84,,,2252841.0,1637401932.042014,1
9.0,2.25,,,,1637401932.0614583,1
9.0,-0.705,,,2251687.0,1637401932.0809028,1
9.0,-3.25,,,,1637401932.1003473,1
9.0,-4.07,,,2250780.0,1637401932.1197917,1
9.0,-4.06,,,,1637401932.1392362,1
9.0,-2.55,,,2249784.0,1637401932.1586804,1
9.0,-0.07,,,,1637401932.178125,1
9.0,1.82,,,2249488.0,1637401932.1975694,1
9.0,3.51,,,,1637401932.2170138,1
9.0,5.0649999999999995,,,2249068.0,1637401932.2364583,1
9.0,5.47,1.244134,35.53,,1637401932.2559028,1
9.0,5.3,,,2246683.0,1637401932.2753472,1
9.0,5.43,,,,1637401932.2947917,1
9.0,7.51,,,2241732.0,1637401932.3142362,1
9.0,12.14,,,2236467.0,1637401932.3336806,1
9.0,16.5,,,,1637401932.353125,1
9.0,20.9,,,,1637401932.3725696,1
9.0,25.195,,,2232389.0,1637401932.3920138,1
9.0,25.3,,,2229861.0,1637401932.4114583,1
9.0,22.18,,,,1637401932.4309027,1
9.0,17.1,,,2228314.0,1637401932.4503472,1
9.0,7.675000000000001,,,,1637401932.4697917,1
9.0,-1.29,,,,1637401932.489236,1
9.0,-5.72,1.244134,35.53,2227115.0,1637401932.5086806,1
9.0,-8.57,,,,1637401932.528125,1
9.0,-10.015,,,2226798.0,1637401932.5475695,1
9.0,-9.59,,,,1637401932.567014,1
9.0,-8.84,,,2226665.0,1637401932.5864584,1
9.0,-8.18,,,,1637401932.6059027,1
9.0,-7.585,,,2225999.0,1637401932.6253471,1
9.0,-7.1,,,,1637401932.6447916,1
9.0,-6.61,,,2225672.0,1637401932.664236,1
9.0,-5.89,,,,1637401932.6836805,1
9.0,-4.99,,,2225297.0,1637401932.703125,1
9.0,-3.65,,,,1637401932.7225695,1
9.0,-2.65,,,2225380.0,1637401932.742014,1
9.0,-2.29,1.236448,35.53,,1637401932.7614584,1
9.0,-2.11,,,2225217.0,1637401932.7809029,1
9.0,-2.1,,,,1637401932.8003473,1
9.0,-2.38,,,2225856.0,1637401932.8197916,1
9.0,-2.86,,,,1637401932.839236,1
9.0,-3.64,,,2226475.0,1637401932.8586805,1
9.0,-5.234999999999999,,,,1637401932.878125,1
9.0,-6.89,,,2224595.0,1637401932.8975694,1
9.0,-7.69,,,,1637401932.917014,1
9.0,-8.02,,,2224595.0,1637401932.9364583,1
9.0,-7.41,,,,1637401932.9559028,1
9.0,-5.91,,,2220117.0,1637401932.9753473,1
9.0,-4.76,,,,1637401932.9947917,1
9.0,-3.97,1.237729,35.53,2215934.0,1637401933.0142362,1
9.0,-4.32,,,,1637401933.0336804,1
9.0,-6.39,,,2213106.0,1637401933.053125,1
9.0,-8.46,,,,1637401933.0725694,1
9.0,-10.38,,,2211990.0,1637401933.0920138,1
9.0,-11.59,,,,1637401933.1114583,1
9.0,-10.53,,,2213536.0,1637401933.1309028,1
9.0,-8.63,,,,1637401933.1503472,1
9.0,-6.55,,,2216617.0,1637401933.1697917,1
9.0,-4.59,,,,1637401933.1892362,1
9.0,-4.62,,,2215831.0,1637401933.2086806,1
9.0,-5.88,,,,1637401933.228125,1
9.0,-7.63,,,2216937.0,1637401933.2475696,1
9.0,-9.975,1.23901,35.53,,1637401933.2670138,1
9.0,-11.25,,,2220648.0,1637401933.2864583,1
9.0,-11.3,,,,1637401933.3059027,1
9.0,-10.94,,,,1637401933.3253472,1
9.0,-10.105,,,2224274.0,1637401933.3447917,1
9.0,-9.25,,,,1637401933.364236,1
9.0,-8.62,,,2228281.0,1637401933.3836806,1
9.0,-7.79,,,,1637401933.403125,1
9.0,-6.03,,,2230587.0,1637401933.4225695,1
9.0,-3.89,,,,1637401933.442014,1
9.0,-2.4,,,2233660.0,1637401933.4614584,1
9.0,-1.0,,,,1637401933.4809027,1
9.0,0.91,1.240291,35.53,2242840.0,1637401933.5003471,1
9.0,2.54,,,,1637401933.5197916,1
9.0,3.26,,,2257417.0,1637401933.539236,1
9.0,3.47,,,,1637401933.5586805,1
9.0,3.07,,,2265815.0,1637401933.578125,1
9.0,1.415,,,,1637401933.5975695,1
9.0,-0.43,,,2267340.0,1637401933.617014,1
9.0,-1.08,,,,1637401933.6364584,1
9.0,-0.89,,,2266308.0,1637401933.6559029,1
9.0,0.8650000000000001,,,,1637401933.6753473,1
9.0,3.22,,,2264696.0,1637401933.6947916,1
9.0,4.46,,,,1637401933.714236,1
9.0,5.14,,,2261750.0,1637401933.7336805,1
9.0,4.975,1.233886,35.53,,1637401933.753125,1
9.0,4.14,,,2260738.0,1637401933.7725694,1
9.0,3.6,,,,1637401933.792014,1
9.0,3.4,,,2258485.0,1637401933.8114583,1
9.0,4.345,,,,1637401933.8309028,1
9.0,6.64,,,2255975.0,1637401933.8503473,1
9.0,8.84,,,,1637401933.8697917,1
9.0,11.16,,,,1637401933.8892362,1
9.0,13.934999999999999,,,2254017.0,1637401933.9086804,1
9.0,15.51,,,,1637401933.928125,1
9.0,15.78,,,2252700.0,1637401933.9475694,1
9.0,15.69,,,,1637401933.9670138,1
9.0,15.41,,,2252356.0,1637401933.9864583,1
9.0,15.39,1.231324,35.53,,1637401934.0059028,1
9.0,15.62,,,2252780.0,1637401934.0253472,1
9.0,15.95,,,,1637401934.0447917,1
9.0,16.384999999999998,,,2253116.0,1637401934.0642362,1
9.0,16.47,,,,1637401934.0836806,1
9.0,16.08,,,2253255.0,1637401934.103125,1
9.0,15.19,,,,1637401934.1225696,1
9.0,12.690000000000001,,,2253435.0,1637401934.1420138,1
9.0,9.14,,,,1637401934.1614583,1
9.0,6.34,,,2254403.0,1637401934.1809027,1
9.0,3.51,,,,1637401934.2003472,1
9.0,-0.185,,,2253913.0,1637401934.2197917,1
9.0,-2.86,,,,1637401934.239236,1
9.0,-3.9,1.241572,35.53,2251627.0,1637401934.2586806,1
9.0,-4.56,,,,1637401934.278125,1
9.0,-5.4,,,2248421.0,1637401934.2975695,1
9.0,-6.64,,,,1637401934.317014,1
9.0,-7.83,,,2246598.0,1637401934.3364584,1
9.0,-9.19,,,,1637401934.3559027,1
9.0,-11.04,,,2245944.0,1637401934.3753471,1
9.0,-12.21,,,,1637401934.3947916,1
9.0,-12.3,,,2245918.0,1637401934.414236,1
9.0,-11.87,,,,1637401934.4336805,1
9.0,-10.98,,,2246464.0,1637401934.453125,1
9.0,-9.350000000000001,,,,1637401934.4725695,1
9.0,-8.04,,,2247135.0,1637401934.492014,1
9.0,-7.57,1.235167,35.53,,1637401934.5114584,1
9.0,-7.3,,,2247200.0,1637401934.5309029,1
9.0,-6.745,,,,1637401934.5503473,1
9.0,-5.97,,,2247508.0,1637401934.5697916,1
9.0,-5.61,,,,1637401934.589236,1
9.0,-5.69,,,2248152.0,1637401934.6086805,1
9.0,-6.605,,,,1637401934.628125,1
9.0,-7.6,,,2248843.0,1637401934.6475694,1
9.0,-7.75,,,,1637401934.667014,1
9.0,-7.36,,,,1637401934.6864583,1
9.0,-6.34,,,2249051.0,1637401934.7059028,1
9.0,-5.71,,,,1637401934.7253473,1
9.0,-5.81,,,2250217.0,1637401934.7447917,1
9.0,-6.19,1.230043,35.53,,1637401934.7642362,1
9.0,-6.74,,,2250954.0,1637401934.7836804,1
9.0,-6.94,,,,1637401934.803125,1
9.0,-6.81,,,2251208.0,1637401934.8225694,1
9.0,-6.61,,,,1637401934.8420138,1
9.0,-6.33,,,2249194.0,1637401934.8614583,1
9.0,-6.15,,,,1637401934.8809028,1
9.0,-6.07,,,2246814.0,1637401934.9003472,1
9.0,-5.99,,,2244513.0,1637401934.9197917,1
9.0,-5.8100000000000005,,,,1637401934.9392362,1
9.0,-5.56,,,2243302.0,1637401934.9586806,1
9.0,-5.33,,,,1637401934.978125,1
9.0,-4.96,,,2242874.0,1637401934.9975696,1
9.0,-3.77,1.235167,35.53,,1637401935.0170138,1
9.0,-1.74,,,2243177.0,1637401935.0364583,1
9.0,0.03,,,,1637401935.0559027,1
9.0,1.79,,,2243787.0,1637401935.0753472,1
9.0,3.7350000000000003,,,,1637401935.0947917,1
9.0,4.74,,,2244332.0,1637401935.114236,1
9.0,4.92,,,,1637401935.1336806,1
9.0,4.83,,,2244789.0,1637401935.153125,1
9.0,4.0649999999999995,,,,1637401935.1725695,1
9.0,2.4,,,2245267.0,1637401935.192014,1
9.0,0.73,,,,1637401935.2114584,1
9.0,-1.0,,,,1637401935.2309027,1
9.0,-2.66,1.235167,35.5,2246382.0,1637401935.2503471,1
9.0,-2.74,,,,1637401935.2697916,1
9.0,-1.84,,,2247181.0,1637401935.289236,1
9.0,-0.6,,,,1637401935.3086805,1
9.0,0.62,,,2248535.0,1637401935.328125,1
9.0,1.7650000000000001,,,,1637401935.3475695,1
9.0,1.92,,,2251679.0,1637401935.367014,1
9.0,1.38,,,2261924.0,1637401935.3864584,1
9.0,0.48,,,,1637401935.4059029,1
9.0,-0.93,,,,1637401935.4253473,1
9.0,-1.88,,,2268957.0,1637401935.4447916,1
9.0,-2.07,,,,1637401935.464236,1
9.0,-2.04,,,2271361.0,1637401935.4836805,1
9.0,-1.81,1.237729,35.5,,1637401935.503125,1
9.0,-1.52,,,2272834.0,1637401935.5225694,1
9.0,-1.28,,,,1637401935.542014,1
9.0,-1.1,,,2274258.0,1637401935.5614583,1
9.0,-1.4449999999999998,,,,1637401935.5809028,1
9.0,-2.83,,,2276091.0,1637401935.6003473,1
9.0,-4.36,,,,1637401935.6197917,1
9.0,-5.94,,,2279025.0,1637401935.6392362,1
9.0,-7.27,,,,1637401935.6586804,1
9.0,-6.87,,,2282375.0,1637401935.678125,1
9.0,-5.6,,,,1637401935.6975694,1
9.0,-4.06,,,2283961.0,1637401935.7170138,1
9.0,-2.445,,,,1637401935.7364583,1
9.0,-2.08,1.233886,35.5,2285406.0,1637401935.7559028,1
9.0,-2.45,,,,1637401935.7753472,1
9.0,-2.82,,,2281062.0,1637401935.7947917,1
9.0,-2.46,,,,1637401935.8142362,1
9.0,-0.87,,,2284661.0,1637401935.8336806,1
9.0,0.8,,,,1637401935.853125,1
9.0,2.52,,,2289168.0,1637401935.8725696,1
9.0,4.54,,,,1637401935.8920138,1
9.0,5.73,,,2291439.0,1637401935.9114583,1
9.0,6.16,,,,1637401935.9309027,1
9.0,6.65,,,2291998.0,1637401935.9503472,1
9.0,7.930000000000001,,,,1637401935.9697917,1
9.0,9.67,,,2292371.0,1637401935.989236,1
9.0,10.81,1.236448,35.5,,1637401936.0086806,1
9.0,11.69,,,2292138.0,1637401936.028125,1
9.0,12.33,,,,1637401936.0475695,1
9.0,12.44,,,,1637401936.067014,1
9.0,12.23,,,2292010.0,1637401936.0864584,1
9.0,11.82,,,,1637401936.1059027,1
9.0,10.76,,,2290883.0,1637401936.1253471,1
9.0,9.55,,,2288091.0,1637401936.1447916,1
9.0,8.95,,,,1637401936.164236,1
9.0,8.65,,,,1637401936.1836805,1
9.0,8.6,,,2283111.0,1637401936.203125,1
9.0,8.705,,,2277493.0,1637401936.2225695,1
9.0,8.76,,,,1637401936.242014,1
9.0,8.66,1.235167,35.53,2274303.0,1637401936.2614584,1
9.0,8.42,,,,1637401936.2809029,1
9.0,7.51,,,2272705.0,1637401936.3003473,1
9.0,6.12,,,,1637401936.3197916,1
9.0,5.07,,,2271911.0,1637401936.339236,1
9.0,4.18,,,,1637401936.3586805,1
9.0,3.325,,,2271353.0,1637401936.378125,1
9.0,2.86,,,,1637401936.3975694,1
9.0,2.72,,,2270855.0,1637401936.417014,1
9.0,2.68,,,,1637401936.4364583,1
9.0,2.77,,,2270616.0,1637401936.4559028,1
9.0,2.64,,,,1637401936.4753473,1
9.0,1.95,,,2270659.0,1637401936.4947917,1
9.0,0.63,1.235167,35.53,,1637401936.5142362,1
9.0,-2.26,,,,1637401936.5336804,1
9.0,-5.18,,,2270427.0,1637401936.553125,1
9.0,-6.64,,,,1637401936.5725694,1
9.0,-7.68,,,2269986.0,1637401936.5920138,1
9.0,-8.64,,,2269689.0,1637401936.6114583,1
9.0,-9.07,,,,1637401936.6309028,1
9.0,-8.96,,,,1637401936.6503472,1
9.0,-8.64,,,2270013.0,1637401936.6697917,1
9.0,-8.545,,,,1637401936.6892362,1
9.0,-9.63,,,2270185.0,1637401936.7086806,1
9.0,-11.18,,,,1637401936.728125,1
9.0,-12.82,,,2269935.0,1637401936.7475696,1
9.0,-14.05,1.23901,35.53,,1637401936.7670138,1
9.0,-13.39,,,2270354.0,1637401936.7864583,1
9.0,-11.95,,,,1637401936.8059027,1
9.0,-10.21,,,2270781.0,1637401936.8253472,1
9.0,-7.54,,,,1637401936.8447917,1
9.0,-4.89,,,2269461.0,1637401936.864236,1
9.0,-3.06,,,,1637401936.8836806,1
9.0,-1.09,,,2266854.0,1637401936.903125,1
9.0,2.32,,,,1637401936.9225695,1
9.0,6.51,,,2264774.0,1637401936.942014,1
9.0,9.83,,,,1637401936.9614584,1
9.0,13.28,,,2263924.0,1637401936.9809027,1
9.0,17.645000000000003,1.236448,35.53,,1637401937.0003471,1
9.0,20.41,,,2263133.0,1637401937.0197916,1
9.0,21.17,,,,1637401937.039236,1
9.0,21.44,,,2263494.0,1637401937.0586805,1
9.0,21.53,,,,1637401937.078125,1
9.0,21.445,,,2264282.0,1637401937.0975695,1
9.0,20.92,,,,1637401937.117014,1
9.0,20.16,,,2264741.0,1637401937.1364584,1
9.0,19.19,,,,1637401937.1559029,1
9.0,17.555,,,2265133.0,1637401937.1753473,1
9.0,15.54,,,,1637401937.1947916,1
9.0,13.49,,,2265296.0,1637401937.214236,1
9.0,10.68,,,,1637401937.2336805,1
9.0,5.359999999999999,1.237729,35.5,,1637401937.253125,1
9.0,-0.03,,,2265458.0,1637401937.2725694,1
9.0,-2.9,,,,1637401937.292014,1
9.0,-4.89,,,2266203.0,1637401937.3114583,1
9.0,-6.16,,,,1637401937.3309028,1
9.0,-6.34,,,2266720.0,1637401937.3503473,1
9.0,-6.27,,,,1637401937.3697917,1
9.0,-6.43,,,2267175.0,1637401937.3892362,1
9.0,-7.1850000000000005,,,,1637401937.4086804,1
9.0,-8.01,,,2267926.0,1637401937.428125,1
9.0,-8.19,,,,1637401937.4475694,1
9.0,-7.91,,,2269025.0,1637401937.4670138,1
9.0,-7.025,,,,1637401937.4864583,1
9.0,-6.43,1.246696,35.5,2267791.0,1637401937.5059028,1
9.0,-6.5,,,,1637401937.5253472,1
9.0,-6.75,,,2265543.0,1637401937.5447917,1
9.0,-6.93,,,,1637401937.5642362,1
9.0,-6.59,,,2263459.0,1637401937.5836806,1
9.0,-6.1,,,,1637401937.603125,1
9.0,-5.49,,,2262703.0,1637401937.6225696,1
9.0,-4.42,,,,1637401937.6420138,1
9.0,-3.4,,,2265102.0,1637401937.6614583,1
9.0,-3.04,,,,1637401937.6809027,1
9.0,-3.1,,,2268446.0,1637401937.7003472,1
9.0,-3.71,,,,1637401937.7197917,1
9.0,-3.84,,,2273645.0,1637401937.739236,1
9.0,-2.97,1.251819,35.5,,1637401937.7586806,1
9.0,-1.26,,,2280283.0,1637401937.778125,1
9.0,2.175,,,,1637401937.7975695,1
9.0,5.38,,,2285199.0,1637401937.817014,1
9.0,6.81,,,,1637401937.8364584,1
9.0,7.47,,,2289799.0,1637401937.8559027,1
9.0,6.71,,,,1637401937.8753471,1
9.0,4.07,,,2292638.0,1637401937.8947916,1
9.0,1.28,,,,1637401937.914236,1
9.0,-1.78,,,2295746.0,1637401937.9336805,1
9.0,-4.62,,,,1637401937.953125,1
9.0,-7.725,,,2295746.0,1637401937.9725695,1
9.0,-9.78,,,,1637401937.992014,1
9.0,-10.82,1.245415,35.5,2301446.0,1637401938.0114584,1
9.0,-11.85,,,,1637401938.0309029,1
9.0,-13.190000000000001,,,2309270.0,1637401938.0503473,1
9.0,-13.96,,,,1637401938.0697916,1
9.0,-14.02,,,2314076.0,1637401938.089236,1
9.0,-13.86,,,,1637401938.1086805,1
9.0,-13.6,,,2314900.0,1637401938.128125,1
9.0,-13.34,,,,1637401938.1475694,1
9.0,-12.9,,,2322521.0,1637401938.167014,1
9.0,-12.03,,,,1637401938.1864583,1
9.0,-9.690000000000001,,,2329436.0,1637401938.2059028,1
9.0,-6.57,,,,1637401938.2253473,1
9.0,-4.38,,,2332859.0,1637401938.2447917,1
9.0,-2.52,1.245415,35.49,,1637401938.2642362,1
9.0,-0.895,,,,1637401938.2836804,1
9.0,-0.34,,,2334336.0,1637401938.303125,1
9.0,-0.22,,,,1637401938.3225694,1
9.0,0.18,,,2331634.0,1637401938.3420138,1
9.0,1.905,,,,1637401938.3614583,1
9.0,4.66,,,2330078.0,1637401938.3809028,1
9.0,6.73,,,,1637401938.4003472,1
9.0,8.44,,,2327681.0,1637401938.4197917,1
9.0,9.45,,,,1637401938.4392362,1
9.0,8.64,,,2325358.0,1637401938.4586806,1
9.0,7.32,,,,1637401938.478125,1
9.0,6.07,,,2322013.0,1637401938.4975696,1
9.0,5.615,1.245415,35.49,,1637401938.5170138,1
9.0,6.75,,,2317241.0,1637401938.5364583,1
9.0,7.86,,,,1637401938.5559027,1
9.0,8.35,,,2313296.0,1637401938.5753472,1
9.0,6.595000000000001,,,,1637401938.5947917,1
9.0,2.5,,,2310928.0,1637401938.614236,1
9.0,-0.9,,,,1637401938.6336806,1
9.0,-3.93,,,2308479.0,1637401938.653125,1
9.0,-6.705,,,,1637401938.6725695,1
9.0,-7.95,,,2307836.0,1637401938.692014,1
9.0,-8.41,,,,1637401938.7114584,1
9.0,-9.08,,,2306692.0,1637401938.7309027,1
9.0,-10.43,1.241572,35.49,,1637401938.7503471,1
9.0,-11.41,,,2305452.0,1637401938.7697916,1
9.0,-11.28,,,,1637401938.789236,1
9.0,-10.52,,,2302163.0,1637401938.8086805,1
9.0,-9.46,,,,1637401938.828125,1
9.0,-8.235,,,2297687.0,1637401938.8475695,1
9.0,-7.8,,,,1637401938.867014,1
9.0,-7.78,,,2293155.0,1637401938.8864584,1
9.0,-7.58,,,,1637401938.9059029,1
9.0,-6.525,,,2289430.0,1637401938.9253473,1
9.0,-4.72,,,,1637401938.9447916,1
9.0,-3.07,,,2286538.0,1637401938.964236,1
9.0,-1.05,,,,1637401938.9836805,1
9.0,2.855,1.232605,35.49,2284624.0,1637401939.003125,1
9.0,7.52,,,,1637401939.0225694,1
9.0,10.89,,,2282431.0,1637401939.042014,1
9.0,14.3,,,,1637401939.0614583,1
9.0,19.425,,,2281062.0,1637401939.0809028,1
9.0,24.26,,,,1637401939.1003473,1
9.0,26.63,,,2279765.0,1637401939.1197917,1
9.0,27.61,,,,1637401939.1392362,1
9.0,25.035,,,2278652.0,1637401939.1586804,1
9.0,18.68,,,,1637401939.178125,1
9.0,13.1,,,2277667.0,1637401939.1975694,1
9.0,7.72,,,,1637401939.2170138,1
9.0,1.68,,,2277283.0,1637401939.2364583,1
9.0,-2.13,1.230043,35.5,,1637401939.2559028,1
9.0,-3.82,,,2276652.0,1637401939.2753472,1
9.0,-5.56,,,,1637401939.2947917,1
9.0,-9.22,,,2275965.0,1637401939.3142362,1
9.0,-13.9,,,,1637401939.3336806,1
9.0,-16.96,,,2275161.0,1637401939.353125,1
9.0,-19.07,,,,1637401939.3725696,1
9.0,-18.87,,,2275528.0,1637401939.3920138,1
9.0,-15.18,,,,1637401939.4114583,1
9.0,-11.37,,,2274340.0,1637401939.4309027,1
9.0,-7.72,,,,1637401939.4503472,1
9.0,-4.23,,,,1637401939.4697917,1
9.0,-2.96,,,2270173.0,1637401939.489236,1
9.0,-2.98,1.230043,35.5,,1637401939.5086806,1
9.0,-3.1,,,2265439.0,1637401939.528125,1
9.0,-3.15,,,,1637401939.5475695,1
9.0,-3.38,,,2261489.0,1637401939.567014,1
9.0,-3.9,,,,1637401939.5864584,1
9.0,-4.58,,,2258285.0,1637401939.6059027,1
9.0,-5.105,,,,1637401939.6253471,1
9.0,-4.18,,,2256934.0,1637401939.6447916,1
9.0,-2.19,,,,1637401939.664236,1
9.0,0.81,,,2255454.0,1637401939.6836805,1
9.0,4.49,,,,1637401939.703125,1
9.0,9.96,,,2254472.0,1637401939.7225695,1
9.0,13.89,,,,1637401939.742014,1
9.0,14.8,1.233886,35.5,2253981.0,1637401939.7614584,1
9.0,14.48,,,,1637401939.7809029,1
9.0,12.524999999999999,,,2252946.0,1637401939.8003473,1
9.0,10.28,,,,1637401939.8197916,1
9.0,9.01,,,2252369.0,1637401939.839236,1
9.0,7.95,,,,1637401939.8586805,1
9.0,6.6,,,2252598.0,1637401939.878125,1
9.0,5.54,,,,1637401939.8975694,1
9.0,5.13,,,2253034.0,1637401939.917014,1
9.0,4.87,,,,1637401939.9364583,1
9.0,4.39,,,2254159.0,1637401939.9559028,1
9.0,3.65,,,,1637401939.9753473,1
9.0,3.23,,,2257480.0,1637401939.9947917,1
9.0,3.2,1.232605,35.5,,1637401940.0142362,1
9.0,4.13,,,2259897.0,1637401940.0336804,1
9.0,5.56,,,,1637401940.053125,1
9.0,6.29,,,2261403.0,1637401940.0725694,1
9.0,6.59,,,,1637401940.0920138,1
9.0,6.425,,,2260337.0,1637401940.1114583,1
9.0,6.34,,,,1637401940.1309028,1
9.0,6.85,,,2259023.0,1637401940.1503472,1
9.0,8.02,,,,1637401940.1697917,1
9.0,10.844999999999999,,,2257688.0,1637401940.1892362,1
9.0,13.81,,,,1637401940.2086806,1
9.0,14.98,,,2258717.0,1637401940.228125,1
9.0,15.05,,,,1637401940.2475696,1
9.0,13.25,1.236448,35.49,2259300.0,1637401940.2670138,1
9.0,10.95,,,,1637401940.2864583,1
9.0,10.21,,,2262703.0,1637401940.3059027,1
9.0,10.54,,,,1637401940.3253472,1
9.0,12.585,,,2265415.0,1637401940.3447917,1
9.0,14.9,,,,1637401940.364236,1
9.0,15.77,,,2267119.0,1637401940.3836806,1
9.0,15.79,,,,1637401940.403125,1
9.0,14.07,,,2269663.0,1637401940.4225695,1
9.0,10.89,,,,1637401940.442014,1
9.0,8.05,,,2279816.0,1637401940.4614584,1
9.0,4.86,,,,1637401940.4809027,1
9.0,-0.40500000000000014,1.237729,35.49,2285283.0,1637401940.5003471,1
9.0,-5.71,,,,1637401940.5197916,1
9.0,-8.78,,,2287808.0,1637401940.539236,1
9.0,-10.96,,,,1637401940.5586805,1
9.0,-11.89,,,2288454.0,1637401940.578125,1
9.0,-10.925,,,,1637401940.5975695,1
9.0,-8.97,,,2287344.0,1637401940.617014,1
9.0,-8.26,,,,1637401940.6364584,1
9.0,-8.6,,,2283316.0,1637401940.6559029,1
9.0,-10.8,,,,1637401940.6753473,1
9.0,-13.37,,,2277074.0,1637401940.6947916,1
9.0,-14.69,,,,1637401940.714236,1
9.0,-15.73,,,2270285.0,1637401940.7336805,1
9.0,-17.284999999999997,1.240291,35.49,,1637401940.753125,1
9.0,-18.75,,,,1637401940.7725694,1
9.0,-19.0,,,2263193.0,1637401940.792014,1
9.0,-18.09,,,,1637401940.8114583,1
9.0,-14.49,,,2257638.0,1637401940.8309028,1
9.0,-9.97,,,,1637401940.8503473,1
9.0,-7.46,,,2254086.0,1637401940.8697917,1
9.0,-5.75,,,,1637401940.8892362,1
9.0,-4.305,,,2251124.0,1637401940.9086804,1
9.0,-2.96,,,,1637401940.928125,1
9.0,-1.74,,,2249352.0,1637401940.9475694,1
9.0,-0.37,,,,1637401940.9670138,1
9.0,1.405,,,2247429.0,1637401940.9864583,1
9.0,2.59,1.237729,35.49,,1637401941.0059028,1
9.0,3.06,,,2245255.0,1637401941.0253472,1
9.0,3.39,,,,1637401941.0447917,1
9.0,3.46,,,2243660.0,1637401941.0642362,1
9.0,2.76,,,,1637401941.0836806,1
9.0,1.63,,,2241951.0,1637401941.103125,1
9.0,0.05,,,,1637401941.1225696,1
9.0,-2.675,,,2240234.0,1637401941.1420138,1
9.0,-5.24,,,,1637401941.1614583,1
9.0,-6.55,,,2239393.0,1637401941.1809027,1
9.0,-7.45,,,,1637401941.2003472,1
9.0,-7.74,,,2237811.0,1637401941.2197917,1
9.0,-7.02,,,,1637401941.239236,1
9.0,-6.08,1.232605,35.47,2232143.0,1637401941.2586806,1
9.0,-5.11,,,,1637401941.278125,1
9.0,-4.15,,,2224445.0,1637401941.2975695,1
9.0,-3.96,,,,1637401941.317014,1
9.0,-4.28,,,2216659.0,1637401941.3364584,1
9.0,-4.86,,,,1637401941.3559027,1
9.0,-6.050000000000001,,,2210274.0,1637401941.3753471,1
9.0,-7.44,,,,1637401941.3947916,1
9.0,-8.37,,,2205534.0,1637401941.414236,1
9.0,-9.18,,,,1637401941.4336805,1
9.0,-9.73,,,2202415.0,1637401941.453125,1
9.0,-9.68,,,,1637401941.4725695,1
9.0,-8.55,,,2200168.0,1637401941.492014,1
9.0,-7.18,1.226201,35.47,,1637401941.5114584,1
9.0,-5.57,,,2197869.0,1637401941.5309029,1
9.0,-3.565,,,,1637401941.5503473,1
9.0,-2.6,,,2195189.0,1637401941.5697916,1
9.0,-2.74,,,,1637401941.589236,1
9.0,-3.22,,,2192508.0,1637401941.6086805,1
9.0,-3.8200000000000003,,,,1637401941.628125,1
9.0,-3.82,,,2190529.0,1637401941.6475694,1
9.0,-3.46,,,,1637401941.667014,1
9.0,-3.07,,,2188604.0,1637401941.6864583,1
9.0,-2.75,,,,1637401941.7059028,1
9.0,-2.68,,,2187057.0,1637401941.7253473,1
9.0,-2.57,,,,1637401941.7447917,1
9.0,-2.24,1.233886,35.47,2185698.0,1637401941.7642362,1
9.0,-1.15,,,,1637401941.7836804,1
9.0,0.43,,,2184733.0,1637401941.803125,1
9.0,1.65,,,,1637401941.8225694,1
9.0,2.86,,,2183664.0,1637401941.8420138,1
9.0,4.225,,,,1637401941.8614583,1
9.0,4.76,,,2177321.0,1637401941.8809028,1
9.0,4.45,,,,1637401941.9003472,1
9.0,3.76,,,2168313.0,1637401941.9197917,1
9.0,2.44,,,,1637401941.9392362,1
9.0,1.3,,,2159974.0,1637401941.9586806,1
9.0,0.75,,,,1637401941.978125,1
9.0,0.22,,,2153631.0,1637401941.9975696,1
9.0,-0.7350000000000001,1.235167,35.47,,1637401942.0170138,1
9.0,-1.79,,,2148310.0,1637401942.0364583,1
9.0,-2.32,,,,1637401942.0559027,1
9.0,-2.5,,,2145199.0,1637401942.0753472,1
9.0,-1.8850000000000002,,,,1637401942.0947917,1
9.0,-0.61,,,2142804.0,1637401942.114236,1
9.0,0.47,,,,1637401942.1336806,1
9.0,1.55,,,2140661.0,1637401942.153125,1
9.0,2.995,,,,1637401942.1725695,1
9.0,4.02,,,2138687.0,1637401942.192014,1
9.0,4.35,,,,1637401942.2114584,1
9.0,4.47,,,,1637401942.2309027,1
9.0,4.654999999999999,1.235167,35.49,2137932.0,1637401942.2503471,1
9.0,5.27,,,,1637401942.2697916,1
9.0,6.12,,,2138010.0,1637401942.289236,1
9.0,7.22,,,,1637401942.3086805,1
9.0,8.38,,,2139261.0,1637401942.328125,1
9.0,9.71,,,,1637401942.3475695,1
9.0,10.35,,,2141806.0,1637401942.367014,1
9.0,10.32,,,,1637401942.3864584,1
9.0,10.14,,,2145796.0,1637401942.4059029,1
9.0,9.95,,,,1637401942.4253473,1
9.0,10.01,,,2152463.0,1637401942.4447916,1
9.0,10.09,,,,1637401942.464236,1
9.0,10.0,,,2159828.0,1637401942.4836805,1
9.0,9.344999999999999,1.236448,35.49,,1637401942.503125,1
9.0,8.32,,,2167314.0,1637401942.5225694,1
9.0,7.63,,,,1637401942.542014,1
9.0,7.07,,,2172811.0,1637401942.5614583,1
9.0,6.395,,,,1637401942.5809028,1
9.0,5.69,,,2178281.0,1637401942.6003473,1
9.0,5.13,,,,1637401942.6197917,1
9.0,4.49,,,2184267.0,1637401942.6392362,1
9.0,3.285,,,,1637401942.6586804,1
9.0,1.53,,,2188912.0,1637401942.678125,1
9.0,-0.08,,,,1637401942.6975694,1
9.0,-1.81,,,2189514.0,1637401942.7170138,1
9.0,-3.9,,,,1637401942.7364583,1
9.0,-4.89,1.246696,35.49,2188073.0,1637401942.7559028,1
9.0,-4.86,,,,1637401942.7753472,1
9.0,-4.61,,,2184121.0,1637401942.7947917,1
9.0,-4.16,,,,1637401942.8142362,1
9.0,-3.59,,,2181983.0,1637401942.8336806,1
9.0,-2.93,,,,1637401942.853125,1
9.0,-2.08,,,2180286.0,1637401942.8725696,1
9.0,-0.745,,,,1637401942.8920138,1
9.0,0.33,,,2176872.0,1637401942.9114583,1
9.0,0.87,,,,1637401942.9309027,1
9.0,1.44,,,2172699.0,1637401942.9503472,1
9.0,2.635,,,,1637401942.9697917,1
9.0,4.11,,,2167571.0,1637401942.989236,1
9.0,5.1,1.244134,35.49,,1637401943.0086806,1
9.0,5.97,,,2162654.0,1637401943.028125,1
9.0,6.77,,,,1637401943.0475695,1
9.0,6.8,,,2162654.0,1637401943.067014,1
9.0,6.24,,,,1637401943.0864584,1
9.0,5.34,,,2159463.0,1637401943.1059027,1
9.0,3.8049999999999997,,,,1637401943.1253471,1
9.0,2.54,,,2157101.0,1637401943.1447916,1
9.0,1.91,,,,1637401943.164236,1
9.0,1.29,,,2154725.0,1637401943.1836805,1
9.0,0.54,,,,1637401943.203125,1
9.0,-0.855,,,2153136.0,1637401943.2225695,1
9.0,-2.39,,,,1637401943.242014,1
9.0,-3.53,1.23901,35.49,2151733.0,1637401943.2614584,1
9.0,-4.95,,,,1637401943.2809029,1
9.0,-8.24,,,2150216.0,1637401943.3003473,1
9.0,-12.62,,,,1637401943.3197916,1
9.0,-15.71,,,2149174.0,1637401943.339236,1
9.0,-18.21,,,,1637401943.3586805,1
9.0,-19.825,,,2145096.0,1637401943.378125,1
9.0,-19.21,,,,1637401943.3975694,1
9.0,-17.74,,,2136026.0,1637401943.417014,1
9.0,-15.91,,,,1637401943.4364583,1
9.0,-12.855,,,2126599.0,1637401943.4559028,1
9.0,-9.55,,,,1637401943.4753473,1
9.0,-7.23,,,2118949.0,1637401943.4947917,1
9.0,-4.98,1.233886,35.49,,1637401943.5142362,1
9.0,-2.185,,,2113141.0,1637401943.5336804,1
9.0,-0.26,,,,1637401943.553125,1
9.0,0.41,,,2109092.0,1637401943.5725694,1
9.0,0.77,,,,1637401943.5920138,1
9.0,1.155,,,2106466.0,1637401943.6114583,1
9.0,1.89,,,,1637401943.6309028,1
9.0,2.89,,,2104050.0,1637401943.6503472,1
9.0,4.3,,,,1637401943.6697917,1
9.0,6.859999999999999,,,2101594.0,1637401943.6892362,1
9.0,9.12,,,,1637401943.7086806,1
9.0,10.01,,,2098784.0,1637401943.728125,1
9.0,10.28,,,,1637401943.7475696,1
9.0,9.7,1.23901,35.49,2096538.0,1637401943.7670138,1
9.0,8.58,,,,1637401943.7864583,1
9.0,7.69,,,2094306.0,1637401943.8059027,1
9.0,6.79,,,,1637401943.8253472,1
9.0,5.390000000000001,,,2092680.0,1637401943.8447917,1
9.0,3.97,,,,1637401943.864236,1
9.0,3.11,,,2091011.0,1637401943.8836806,1
9.0,2.37,,,,1637401943.903125,1
9.0,1.395,,,2090287.0,1637401943.9225695,1
9.0,0.34,,,,1637401943.942014,1
9.0,-0.57,,,2089291.0,1637401943.9614584,1
