ID,empatica_bvp,empatica_eda,empatica_temp,samsung_bvp,time,CL
9.0,6.558,1.437384,34.18,2097205.0,1637402255.3277779,0
9.0,6.792,,,2099015.0,1637402255.4055555,0
9.0,-1.404,,,2101183.0,1637402255.4833333,0
9.0,1.566,1.461719,34.18,2103243.0,1637402255.5611112,0
9.0,9.304,,,2105516.5,1637402255.6388888,0
9.0,13.963999999999999,,,2108015.5,1637402255.7166667,0
9.0,11.402,1.653936,34.18,2110624.0,1637402255.7944446,0
9.0,2.5360000000000005,,,2113461.5,1637402255.8722222,0
9.0,-17.839999999999996,,,2116639.0,1637402255.95,0
9.0,-64.29400000000001,1.451571,34.18,2119695.0,1637402256.0277777,0
9.0,-115.976,,,2120524.5,1637402256.1055555,0
9.0,-103.602,,,2117880.5,1637402256.1833334,0
9.0,-59.83,1.440044,34.18,2117348.0,1637402256.261111,0
9.0,-16.17,,,2117812.5,1637402256.338889,0
9.0,99.81599999999999,,,2117859.0,1637402256.4166667,0
9.0,169.188,,,2118276.0,1637402256.4944444,0
9.0,182.50799999999998,1.43364,34.18,2119824.0,1637402256.5722222,0
9.0,97.082,,,2120779.0,1637402256.65,0
9.0,-38.372,,,2122248.0,1637402256.7277777,0
9.0,-68.768,1.43364,34.18,2124150.0,1637402256.8055556,0
9.0,-99.90799999999999,,,2126066.0,1637402256.8833334,0
9.0,-83.196,,,2128382.0,1637402256.961111,0
9.0,-57.638,1.437483,34.18,2130902.5,1637402257.038889,0
9.0,-47.908,,,2133537.5,1637402257.1166666,0
9.0,-46.8,,,2136161.5,1637402257.1944444,0
9.0,-15.634,1.437483,34.16,2138315.0,1637402257.2722223,0
9.0,6.508,,,2136142.5,1637402257.35,0
9.0,4.95,,,2134305.0,1637402257.4277778,0
9.0,12.382000000000001,1.43364,34.16,2134378.0,1637402257.5055556,0
9.0,7.818,,,2134726.0,1637402257.5833333,0
9.0,0.516,,,2134949.5,1637402257.661111,0
9.0,-2.794,,,2135642.0,1637402257.738889,0
9.0,-3.2920000000000003,1.427236,34.16,2136917.0,1637402257.8166666,0
9.0,-8.559999999999999,,,2137965.5,1637402257.8944445,0
9.0,-11.78,,,2138909.0,1637402257.9722223,0
9.0,-11.472,1.424675,34.16,2140407.0,1637402258.05,0
9.0,-4.254,,,2142104.5,1637402258.1277778,0
9.0,12.206,,,2144413.0,1637402258.2055554,0
9.0,35.83800000000001,1.422113,34.15,2146757.5,1637402258.2833333,0
9.0,56.763999999999996,,,2149178.0,1637402258.3611112,0
9.0,68.526,,,2150959.0,1637402258.4388888,0
9.0,64.19,1.414428,34.15,2149041.5,1637402258.5166667,0
9.0,43.938,,,2147241.0,1637402258.5944445,0
9.0,20.942,,,2147029.5,1637402258.6722221,0
9.0,-17.335,,,2146870.0,1637402258.75,0
9.0,-50.362,1.413148,34.15,2146890.5,1637402258.8277779,0
9.0,-65.622,,,2147427.5,1637402258.9055555,0
9.0,-62.277999999999984,,,2149092.5,1637402258.9833333,0
9.0,-55.028,1.410586,34.15,2154435.5,1637402259.0611112,0
9.0,-59.452,,,2163819.0,1637402259.1388888,0
9.0,-69.25,,,2171015.5,1637402259.2166667,0
9.0,-76.748,1.411867,34.16,2173912.0,1637402259.2944446,0
9.0,-88.13600000000001,,,2176726.5,1637402259.3722222,0
9.0,-51.682,,,2176780.0,1637402259.45,0
9.0,-1.254000000000001,1.409305,34.16,2176000.0,1637402259.5277777,0
9.0,15.963999999999999,,,2173198.0,1637402259.6055555,0
9.0,17.924,,,2168986.0,1637402259.6833334,0
9.0,26.956,1.411867,34.16,2168022.0,1637402259.761111,0
9.0,35.126,,,2167859.0,1637402259.838889,0
9.0,23.740000000000002,,,2167508.5,1637402259.9166667,0
9.0,9.149999999999999,,,2167908.5,1637402259.9944444,0
9.0,-2.3299999999999996,1.418271,34.16,2168579.0,1637402260.0722222,0
9.0,-15.838000000000003,,,2169181.0,1637402260.15,0
9.0,-39.001999999999995,,,2169826.0,1637402260.2277777,0
9.0,-67.63000000000001,1.414428,34.16,2170673.5,1637402260.3055556,0
9.0,-110.18199999999999,,,2172188.5,1637402260.3833334,0
9.0,-72.006,,,2173811.5,1637402260.461111,0
9.0,9.484,1.415709,34.16,2175015.0,1637402260.538889,0
9.0,38.586,,,2174115.0,1637402260.6166666,0
9.0,35.059999999999995,,,2172042.0,1637402260.6944444,0
9.0,47.08,1.418271,34.16,2171554.0,1637402260.7722223,0
9.0,50.808,,,2171959.5,1637402260.85,0
9.0,22.414,,,2172036.0,1637402260.9277778,0
9.0,-13.89,1.418271,34.16,2172489.5,1637402261.0055556,0
9.0,-51.903999999999996,,,2173745.0,1637402261.0833333,0
9.0,-99.99,,,2175197.0,1637402261.161111,0
9.0,-100.24199999999999,,,2176565.0,1637402261.238889,0
9.0,2.5720000000000014,1.418271,34.15,2178009.0,1637402261.3166666,0
9.0,48.438,,,2177985.0,1637402261.3944445,0
9.0,30.162,,,2176145.0,1637402261.4722223,0
9.0,37.694,1.413148,34.15,2175671.5,1637402261.55,0
9.0,47.57600000000001,,,2176820.5,1637402261.6277778,0
9.0,17.362000000000002,,,2177280.0,1637402261.7055554,0
9.0,-21.118000000000002,1.41699,34.15,2177812.5,1637402261.7833333,0
9.0,-75.972,,,2179515.5,1637402261.8611112,0
9.0,-54.878,,,2181219.0,1637402261.9388888,0
9.0,40.212,1.413148,34.15,2183009.0,1637402262.0166667,0
9.0,50.664,,,2183928.0,1637402262.0944445,0
9.0,21.064,,,2182629.0,1637402262.1722221,0
9.0,19.855,,,2182785.0,1637402262.25,0
9.0,5.366,1.418271,34.13,2184136.0,1637402262.3277779,0
9.0,-49.008,,,2184871.0,1637402262.4055555,0
9.0,-113.772,,,2186324.5,1637402262.4833333,0
9.0,-173.96999999999997,1.423394,34.13,2188285.0,1637402262.5611112,0
9.0,-67.316,,,2190980.0,1637402262.6388888,0
9.0,95.276,,,2193028.0,1637402262.7166667,0
9.0,156.622,1.424675,34.13,2190654.0,1637402262.7944446,0
9.0,161.872,,,2188458.5,1637402262.8722222,0
9.0,161.94199999999998,,,2187920.5,1637402262.95,0
9.0,144.664,1.423394,34.13,2187869.5,1637402263.0277777,0
9.0,111.05,,,2187713.0,1637402263.1055555,0
9.0,84.22200000000001,,,2187767.0,1637402263.1833334,0
9.0,57.641999999999996,1.420832,34.15,2188629.5,1637402263.261111,0
9.0,34.406,,,2189777.0,1637402263.338889,0
9.0,-0.3520000000000003,,,2191520.5,1637402263.4166667,0
9.0,-36.288,,,2193190.5,1637402263.4944444,0
9.0,-83.38,1.420832,34.15,2195414.5,1637402263.5722222,0
9.0,-135.352,,,2197409.5,1637402263.65,0
9.0,-199.78799999999998,,,2199869.5,1637402263.7277777,0
9.0,-101.19800000000001,1.419551,34.15,2202655.0,1637402263.8055556,0
9.0,27.148000000000003,,,2205006.0,1637402263.8833334,0
9.0,74.884,,,2203331.0,1637402263.961111,0
9.0,94.886,1.423394,34.15,2201820.5,1637402264.038889,0
9.0,111.63,,,2201778.0,1637402264.1166666,0
9.0,112.04400000000001,,,2202784.0,1637402264.1944444,0
9.0,90.932,1.419551,34.15,2203856.5,1637402264.2722223,0
9.0,77.608,,,2205813.0,1637402264.35,0
9.0,64.836,,,2208240.0,1637402264.4277778,0
9.0,50.994,1.420832,34.15,2210217.0,1637402264.5055556,0
9.0,30.125999999999998,,,2212539.0,1637402264.5833333,0
9.0,11.188,,,2215769.0,1637402264.661111,0
9.0,-13.402000000000001,,,2219298.0,1637402264.738889,0
9.0,-42.791999999999994,1.425956,34.15,2223085.0,1637402264.8166666,0
9.0,-79.884,,,2226377.5,1637402264.8944445,0
9.0,-123.96399999999998,,,2229993.0,1637402264.9722223,0
9.0,-170.89000000000001,1.428517,34.15,2233570.5,1637402265.05,0
9.0,-74.96000000000001,,,2237350.5,1637402265.1277778,0
9.0,28.006,,,2240447.0,1637402265.2055554,0
9.0,60.434000000000005,1.425956,34.15,2242750.5,1637402265.2833333,0
9.0,77.06200000000001,,,2245499.5,1637402265.3611112,0
9.0,89.672,,,2248413.0,1637402265.4388888,0
9.0,89.978,1.424675,34.15,2251477.0,1637402265.5166667,0
9.0,70.47999999999999,,,2254392.0,1637402265.5944445,0
9.0,54.67,,,2256576.0,1637402265.6722221,0
9.0,41.572500000000005,,,2259071.0,1637402265.75,0
9.0,28.946000000000005,1.425956,34.15,2262437.5,1637402265.8277779,0
9.0,8.867999999999999,,,2265515.0,1637402265.9055555,0
9.0,-16.526,,,2268715.5,1637402265.9833333,0
9.0,-38.932,1.425956,34.15,2271774.0,1637402266.0611112,0
9.0,-69.01599999999999,,,2275020.5,1637402266.1388888,0
9.0,-103.426,,,2278253.0,1637402266.2166667,0
9.0,-149.57999999999998,1.419551,34.13,2281527.5,1637402266.2944446,0
9.0,-86.28,,,2284931.0,1637402266.3722222,0
9.0,19.816,,,2287947.5,1637402266.45,0
9.0,53.525999999999996,1.422113,34.13,2289989.0,1637402266.5277777,0
9.0,66.04799999999999,,,2292596.0,1637402266.6055555,0
9.0,78.102,,,2295310.5,1637402266.6833334,0
9.0,83.026,1.424675,34.13,2297895.5,1637402266.761111,0
9.0,73.56799999999998,,,2300273.5,1637402266.838889,0
9.0,66.192,,,2302763.0,1637402266.9166667,0
9.0,73.378,,,2305125.5,1637402266.9944444,0
9.0,61.786,1.419551,34.13,2307599.5,1637402267.0722222,0
9.0,19.821999999999996,,,2309916.0,1637402267.15,0
9.0,-19.468,,,2312411.5,1637402267.2277777,0
9.0,-50.146,1.428517,34.11,2314700.5,1637402267.3055556,0
9.0,-75.558,,,2317047.5,1637402267.3833334,0
9.0,-103.524,,,2319457.0,1637402267.461111,0
9.0,-118.904,1.428517,34.11,2321830.5,1637402267.538889,0
9.0,-44.118,,,2324464.5,1637402267.6166666,0
9.0,12.416,,,2325854.0,1637402267.6944444,0
9.0,24.192,1.428517,34.11,2326911.5,1637402267.7722223,0
9.0,33.628,,,2328928.0,1637402267.85,0
9.0,42.682,,,2331102.0,1637402267.9277778,0
9.0,39.116,1.424675,34.11,2333326.0,1637402268.0055556,0
9.0,26.630000000000003,,,2335512.5,1637402268.0833333,0
9.0,13.522,,,2337764.0,1637402268.161111,0
9.0,2.17,,,2339881.0,1637402268.238889,0
9.0,-9.504,1.422113,34.13,2342167.0,1637402268.3166666,0
9.0,-29.140000000000004,,,2344568.5,1637402268.3944445,0
9.0,-46.053999999999995,,,2346486.5,1637402268.4722223,0
9.0,-61.616,1.419551,34.13,2348883.0,1637402268.55,0
9.0,-80.788,,,2351269.5,1637402268.6277778,0
9.0,-99.96799999999999,,,2353082.5,1637402268.7055554,0
9.0,-38.608,1.41699,34.13,2355028.5,1637402268.7833333,0
9.0,23.016,,,2356351.0,1637402268.8611112,0
9.0,35.8,,,2356950.5,1637402268.9388888,0
9.0,41.541999999999994,1.418271,34.13,2358001.0,1637402269.0166667,0
9.0,48.866,,,2359445.0,1637402269.0944445,0
9.0,46.838,,,2360629.5,1637402269.1722221,0
9.0,31.915000000000003,,,2361950.5,1637402269.25,0
9.0,18.438000000000002,1.41699,34.13,2363644.0,1637402269.3277779,0
9.0,4.784,,,2364604.0,1637402269.4055555,0
9.0,-9.024000000000001,,,2366291.0,1637402269.4833333,0
9.0,-22.363999999999997,1.41699,34.13,2368158.0,1637402269.5611112,0
9.0,-38.358,,,2369576.0,1637402269.6388888,0
9.0,-55.105999999999995,,,2370927.0,1637402269.7166667,0
9.0,-84.29400000000001,1.420832,34.13,2372444.6666666665,1637402269.7944446,0
9.0,-66.326,,,2373888.0,1637402269.8722222,0
9.0,7.766,,,2374609.0,1637402269.95,0
9.0,35.336,1.425956,34.13,2375166.0,1637402270.0277777,0
9.0,34.848,,,2374384.0,1637402270.1055555,0
9.0,43.257999999999996,,,2374623.0,1637402270.1833334,0
9.0,49.888000000000005,1.424675,34.13,2375367.0,1637402270.261111,0
9.0,42.18599999999999,,,2375434.0,1637402270.338889,0
9.0,25.712,,,2375892.5,1637402270.4166667,0
9.0,8.971999999999998,,,2376261.5,1637402270.4944444,0
9.0,-4.436,1.424675,34.13,2377451.0,1637402270.5722222,0
9.0,-25.202,,,2378178.5,1637402270.65,0
9.0,-48.174,,,2379158.0,1637402270.7277777,0
9.0,-79.172,1.425956,34.13,2380321.0,1637402270.8055556,0
9.0,-67.25,,,2381387.5,1637402270.8833334,0
9.0,3.1499999999999995,,,2382569.0,1637402270.961111,0
9.0,31.160000000000004,1.423394,34.13,2381451.0,1637402271.038889,0
9.0,32.65,,,2378420.5,1637402271.1166666,0
9.0,38.586,,,2376815.0,1637402271.1944444,0
9.0,44.007999999999996,1.422113,34.13,2375979.0,1637402271.2722223,0
9.0,32.922,,,2374478.0,1637402271.35,0
9.0,18.896,,,2373693.5,1637402271.4277778,0
9.0,6.154,1.418271,34.13,2373368.0,1637402271.5055556,0
9.0,-9.602,,,2373329.0,1637402271.5833333,0
9.0,-26.357999999999997,,,2373728.0,1637402271.661111,0
9.0,-45.56,,,2373974.0,1637402271.738889,0
9.0,-69.636,1.418271,34.13,2374127.0,1637402271.8166666,0
9.0,-82.962,,,2374972.5,1637402271.8944445,0
9.0,-21.136000000000003,,,2375626.5,1637402271.9722223,0
9.0,27.5,1.423394,34.13,2373501.0,1637402272.05,0
9.0,32.496,,,2368222.0,1637402272.1277778,0
9.0,37.903999999999996,,,2365239.0,1637402272.2055554,0
9.0,41.05,1.422113,34.11,2363434.5,1637402272.2833333,0
9.0,28.170000000000005,,,2360886.0,1637402272.3611112,0
9.0,11.229999999999999,,,2358884.5,1637402272.4388888,0
9.0,-0.4400000000000002,1.420832,34.11,2358039.0,1637402272.5166667,0
9.0,-14.462,,,2357485.0,1637402272.5944445,0
9.0,-26.566000000000003,,,2357202.5,1637402272.6722221,0
9.0,-46.7675,,,2357173.5,1637402272.75,0
9.0,-66.012,1.427236,34.11,2357125.0,1637402272.8277779,0
9.0,-96.44800000000001,,,2357774.0,1637402272.9055555,0
9.0,-56.17800000000001,,,2358300.0,1637402272.9833333,0
9.0,9.578,1.427236,34.11,2353828.5,1637402273.0611112,0
9.0,26.036,,,2347225.5,1637402273.1388888,0
9.0,28.833999999999996,,,2343748.0,1637402273.2166667,0
9.0,35.702,1.429798,34.09,2341207.0,1637402273.2944446,0
9.0,36.626,,,2337988.0,1637402273.3722222,0
9.0,24.162000000000003,,,2335741.5,1637402273.45,0
9.0,10.728,1.429798,34.09,2334843.5,1637402273.5277777,0
9.0,-0.9219999999999999,,,2334186.5,1637402273.6055555,0
9.0,-15.7,,,2333955.0,1637402273.6833334,0
9.0,-33.346,1.425956,34.09,2333986.0,1637402273.761111,0
9.0,-60.476,,,2334213.5,1637402273.838889,0
9.0,-92.53399999999999,,,2334872.0,1637402273.9166667,0
9.0,-125.55800000000002,,,2335450.0,1637402273.9944444,0
9.0,-50.506,1.424675,34.09,2334639.0,1637402274.0722222,0
9.0,38.41,,,2327154.0,1637402274.15,0
9.0,58.556,,,2322649.0,1637402274.2277777,0
9.0,72.00399999999999,1.428517,34.11,2319761.0,1637402274.3055556,0
9.0,88.64399999999999,,,2317042.0,1637402274.3833334,0
9.0,87.68999999999998,,,2313731.0,1637402274.461111,0
9.0,64.85600000000001,1.427236,34.11,2311249.5,1637402274.538889,0
9.0,41.477999999999994,,,2310298.0,1637402274.6166666,0
9.0,19.505999999999997,,,2309564.0,1637402274.6944444,0
9.0,-5.366,1.428517,34.11,2309047.0,1637402274.7722223,0
9.0,-34.37,,,2308782.5,1637402274.85,0
9.0,-66.732,,,2309080.0,1637402274.9277778,0
9.0,-103.81800000000001,1.43364,34.11,2309783.5,1637402275.0055556,0
9.0,-122.42799999999997,,,2310523.0,1637402275.0833333,0
9.0,-26.709999999999997,,,2309484.0,1637402275.161111,0
9.0,40.226000000000006,,,2301326.0,1637402275.238889,0
9.0,49.251999999999995,1.431079,34.11,2295511.0,1637402275.3166666,0
9.0,58.44199999999999,,,2292082.5,1637402275.3944445,0
9.0,72.42,,,2288688.0,1637402275.4722223,0
9.0,67.65799999999999,1.431079,34.11,2285454.5,1637402275.55,0
9.0,45.153999999999996,,,2284215.0,1637402275.6277778,0
9.0,26.036,,,2283426.5,1637402275.7055554,0
9.0,5.976000000000001,1.431079,34.11,2282928.0,1637402275.7833333,0
9.0,-14.4,,,2282665.0,1637402275.8611112,0
9.0,-40.232000000000006,,,2282575.0,1637402275.9388888,0
9.0,-63.634,1.432359,34.11,2283336.5,1637402276.0166667,0
9.0,-106.274,,,2284332.0,1637402276.0944445,0
9.0,-88.614,,,2285557.0,1637402276.1722221,0
9.0,-0.5849999999999991,,,2283011.0,1637402276.25,0
9.0,37.792,1.427236,34.11,2273812.0,1637402276.3277779,0
9.0,41.867999999999995,,,2268314.0,1637402276.4055555,0
9.0,50.251999999999995,,,2265177.0,1637402276.4833333,0
9.0,61.312,1.428517,34.11,2261392.0,1637402276.5611112,0
9.0,52.13199999999999,,,2258356.0,1637402276.6388888,0
9.0,33.002,,,2256921.0,1637402276.7166667,0
9.0,18.668,1.43364,34.11,2256535.0,1637402276.7944446,0
9.0,7.510000000000001,,,2256019.5,1637402276.8722222,0
9.0,-11.830000000000002,,,2255911.0,1637402276.95,0
9.0,-37.256,1.431079,34.11,2256349.0,1637402277.0277777,0
9.0,-70.204,,,2256964.0,1637402277.1055555,0
9.0,-110.204,,,2258211.5,1637402277.1833334,0
9.0,-135.916,1.427236,34.09,2259796.5,1637402277.261111,0
9.0,-50.884,,,2259930.5,1637402277.338889,0
9.0,6.498,,,2250885.5,1637402277.4166667,0
9.0,8.572,,,2244028.0,1637402277.4944444,0
9.0,15.974,1.434921,34.09,2240379.5,1637402277.5722222,0
9.0,40.158,,,2236941.0,1637402277.65,0
9.0,75.178,,,2233320.5,1637402277.7277777,0
9.0,92.45,1.434921,34.09,2231692.5,1637402277.8055556,0
9.0,82.71799999999999,,,2231497.0,1637402277.8833334,0
9.0,57.646,,,2231534.0,1637402277.961111,0
9.0,27.464000000000006,1.434921,34.09,2231596.5,1637402278.038889,0
9.0,-2.1100000000000008,,,2232560.5,1637402278.1166666,0
9.0,-39.686,,,2233861.0,1637402278.1944444,0
9.0,-76.45400000000001,1.431079,34.07,2235637.5,1637402278.2722223,0
9.0,-114.646,,,2237531.5,1637402278.35,0
9.0,-44.95399999999999,,,2238550.0,1637402278.4277778,0
9.0,30.136000000000003,1.428517,34.07,2236716.5,1637402278.5055556,0
9.0,44.275999999999996,,,2226778.5,1637402278.5833333,0
9.0,55.803999999999995,,,2220577.5,1637402278.661111,0
9.0,72.14,,,2217384.5,1637402278.738889,0
9.0,72.16600000000001,1.429798,34.07,2213943.5,1637402278.8166666,0
9.0,54.08,,,2210765.0,1637402278.8944445,0
9.0,37.202,,,2209722.5,1637402278.9722223,0
9.0,21.922,1.432359,34.07,2209643.5,1637402279.05,0
9.0,4.231999999999999,,,2209828.0,1637402279.1277778,0
9.0,-15.638,,,2210219.0,1637402279.2055554,0
9.0,-45.304,1.431079,34.09,2211147.0,1637402279.2833333,0
9.0,-71.86800000000001,,,2212872.0,1637402279.3611112,0
9.0,-112.776,,,2214737.5,1637402279.4388888,0
9.0,-71.20599999999999,1.429798,34.09,2216899.5,1637402279.5166667,0
9.0,18.512,,,2215526.0,1637402279.5944445,0
9.0,41.946,,,2204951.5,1637402279.6722221,0
9.0,45.237500000000004,,,2199073.0,1637402279.75,0
9.0,52.538,1.432359,34.09,2196719.0,1637402279.8277779,0
9.0,61.348,,,2194734.5,1637402279.9055555,0
9.0,52.104,,,2190448.5,1637402279.9833333,0
9.0,34.291999999999994,1.43364,34.09,2188291.0,1637402280.0611112,0
9.0,20.536,,,2187785.5,1637402280.1388888,0
9.0,5.564,,,2187685.0,1637402280.2166667,0
9.0,-13.335999999999999,1.437483,34.09,2188277.0,1637402280.2944446,0
9.0,-39.681999999999995,,,2189110.5,1637402280.3722222,0
9.0,-67.218,,,2190587.5,1637402280.45,0
9.0,-105.32000000000001,1.436202,34.09,2192484.5,1637402280.5277777,0
9.0,-71.02600000000001,,,2194656.5,1637402280.6055555,0
9.0,15.569999999999999,,,2192946.0,1637402280.6833334,0
9.0,38.577999999999996,1.436202,34.09,2182190.0,1637402280.761111,0
9.0,41.814,,,2176315.5,1637402280.838889,0
9.0,57.984,,,2173683.0,1637402280.9166667,0
9.0,60.338,,,2170247.5,1637402280.9944444,0
9.0,45.664,1.43364,34.09,2167147.5,1637402281.0722222,0
9.0,27.424,,,2166540.5,1637402281.15,0
9.0,10.622,,,2166829.0,1637402281.2277777,0
9.0,-5.192,1.428517,34.07,2167086.0,1637402281.3055556,0
9.0,-27.838,,,2167997.0,1637402281.3833334,0
9.0,-55.11,,,2169184.0,1637402281.461111,0
9.0,-87.91,1.432359,34.07,2171240.0,1637402281.538889,0
9.0,-112.862,,,2173667.5,1637402281.6166666,0
9.0,-34.452000000000005,,,2176180.0,1637402281.6944444,0
9.0,29.665999999999997,1.427236,34.07,2171239.5,1637402281.7722223,0
9.0,40.686,,,2159760.5,1637402281.85,0
9.0,51.81,,,2154095.5,1637402281.9277778,0
9.0,63.634,1.425956,34.07,2150913.5,1637402282.0055556,0
9.0,60.18800000000001,,,2146791.5,1637402282.0833333,0
9.0,41.047999999999995,,,2144051.5,1637402282.161111,0
9.0,23.299999999999997,,,2143635.0,1637402282.238889,0
9.0,7.656000000000001,1.43364,34.07,2144073.5,1637402282.3166666,0
9.0,-11.716,,,2144614.5,1637402282.3944445,0
9.0,-36.766000000000005,,,2145269.0,1637402282.4722223,0
9.0,-65.616,1.434921,34.07,2146630.5,1637402282.55,0
9.0,-104.894,,,2148704.5,1637402282.6277778,0
9.0,-125.126,,,2151202.0,1637402282.7055554,0
9.0,-44.20399999999999,1.431079,34.07,2154022.5,1637402282.7833333,0
9.0,3.832,,,2149216.5,1637402282.8611112,0
9.0,11.17,,,2136621.0,1637402282.9388888,0
9.0,40.772,1.43364,34.07,2130306.5,1637402283.0166667,0
9.0,84.44200000000001,,,2126125.5,1637402283.0944445,0
9.0,99.212,,,2121711.5,1637402283.1722221,0
9.0,80.96000000000001,,,2118723.5,1637402283.25,0
9.0,59.206,1.428517,34.07,2118488.0,1637402283.3277779,0
9.0,35.95399999999999,,,2118966.5,1637402283.4055555,0
9.0,12.162,,,2119171.0,1637402283.4833333,0
9.0,-12.459999999999999,1.434921,34.07,2120081.5,1637402283.5611112,0
9.0,-42.94199999999999,,,2121694.5,1637402283.6388888,0
9.0,-70.65,,,2124211.5,1637402283.7166667,0
9.0,-111.47200000000001,1.428517,34.07,2127202.0,1637402283.7944446,0
9.0,-80.874,,,2130291.5,1637402283.8722222,0
9.0,8.018,,,2132035.5,1637402283.95,0
9.0,39.626,1.432359,34.07,2119815.5,1637402284.0277777,0
9.0,48.194,,,2110078.5,1637402284.1055555,0
9.0,60.238,,,2105209.0,1637402284.1833334,0
9.0,61.46600000000001,1.431079,34.09,2101224.5,1637402284.261111,0
9.0,48.477999999999994,,,2096983.0,1637402284.338889,0
9.0,33.571999999999996,,,2095725.5,1637402284.4166667,0
9.0,21.094,,,2096156.0,1637402284.4944444,0
9.0,10.501999999999999,1.428517,34.09,2097021.5,1637402284.5722222,0
9.0,1.6,,,2098074.5,1637402284.65,0
9.0,-11.018,,,2100141.5,1637402284.7277777,0
9.0,-37.69199999999999,1.434921,34.09,2101976.0,1637402284.8055556,0
9.0,-74.47,,,2104713.0,1637402284.8833334,0
9.0,-118.502,,,2109837.0,1637402284.961111,0
9.0,-63.898,1.432359,34.09,2114865.0,1637402285.038889,0
9.0,3.6959999999999993,,,2114783.0,1637402285.1166666,0
9.0,34.562000000000005,,,2100750.5,1637402285.1944444,0
9.0,56.208000000000006,1.437483,34.07,2093938.0,1637402285.2722223,0
9.0,66.74000000000001,,,2090929.5,1637402285.35,0
9.0,60.395999999999994,,,2087890.0,1637402285.4277778,0
9.0,37.984,1.437483,34.07,2085185.0,1637402285.5055556,0
9.0,18.024,,,2085233.0,1637402285.5833333,0
9.0,3.2479999999999998,,,2086756.5,1637402285.661111,0
9.0,-9.648,,,2088295.0,1637402285.738889,0
9.0,-27.468,1.437483,34.07,2090369.5,1637402285.8166666,0
9.0,-46.142,,,2093221.0,1637402285.8944445,0
9.0,-69.27000000000001,,,2096673.0,1637402285.9722223,0
9.0,-105.518,1.436202,34.07,2100451.0,1637402286.05,0
9.0,-101.47200000000001,,,2103142.0,1637402286.1277778,0
9.0,-13.361999999999998,,,2106383.0,1637402286.2055554,0
9.0,29.467999999999996,1.432359,34.07,2102483.0,1637402286.2833333,0
9.0,39.284000000000006,,,2088855.5,1637402286.3611112,0
9.0,55.55,,,2083506.0,1637402286.4388888,0
9.0,64.416,1.431079,34.07,2081116.5,1637402286.5166667,0
9.0,53.27,,,2077639.5,1637402286.5944445,0
9.0,36.15,,,2075662.5,1637402286.6722221,0
9.0,22.5325,,,2076169.5,1637402286.75,0
9.0,9.188,1.431079,34.07,2077791.5,1637402286.8277779,0
9.0,-7.652000000000001,,,2079525.5,1637402286.9055555,0
9.0,-32.528000000000006,,,2082093.0,1637402286.9833333,0
9.0,-58.326,1.434921,34.07,2085339.5,1637402287.0611112,0
9.0,-95.834,,,2089174.0,1637402287.1388888,0
9.0,-93.49,,,2093064.5,1637402287.2166667,0
9.0,-7.636,1.440044,34.07,2095810.0,1637402287.2944446,0
9.0,36.775999999999996,,,2084385.0,1637402287.3722222,0
9.0,46.9,,,2076254.0,1637402287.45,0
9.0,56.70799999999999,1.434921,34.07,2072386.0,1637402287.5277777,0
9.0,61.532,,,2070787.0,1637402287.6055555,0
9.0,46.358000000000004,,,2068170.0,1637402287.6833334,0
9.0,24.855999999999998,1.440044,34.07,2066684.0,1637402287.761111,0
9.0,3.7060000000000004,,,2068075.3333333333,1637402287.838889,0
9.0,-19.068,,,2069843.0,1637402287.9166667,0
9.0,-46.08,,,2071545.5,1637402287.9944444,0
9.0,-78.256,1.437483,34.07,2074443.0,1637402288.0722222,0
9.0,-101.126,,,2077959.5,1637402288.15,0
9.0,-25.27,,,2082325.0,1637402288.2277777,0
9.0,32.346,1.431079,34.07,2077820.0,1637402288.3055556,0
9.0,45.054,,,2066384.5,1637402288.3833334,0
9.0,53.362,,,2061593.5,1637402288.461111,0
9.0,56.21199999999999,1.432359,34.07,2059144.0,1637402288.538889,0
9.0,44.274,,,2056668.0,1637402288.6166666,0
9.0,18.02,,,2055145.5,1637402288.6944444,0
9.0,-3.0040000000000004,1.43364,34.07,2055363.0,1637402288.7722223,0
9.0,-30.215999999999998,,,2056672.5,1637402288.85,0
9.0,-58.998000000000005,,,2059057.0,1637402288.9277778,0
9.0,-99.212,1.431079,34.07,2061420.0,1637402289.0055556,0
9.0,-61.19199999999999,,,2065055.5,1637402289.0833333,0
9.0,18.541999999999998,,,2063370.0,1637402289.161111,0
9.0,46.324,,,2052228.5,1637402289.238889,0
9.0,49.616,1.43364,34.03,2046749.5,1637402289.3166666,0
9.0,52.972,,,2044499.5,1637402289.3944445,0
9.0,41.66,,,2043053.0,1637402289.4722223,0
9.0,14.703999999999999,1.438763,34.03,2043163.0,1637402289.55,0
9.0,-17.130000000000003,,,2045154.0,1637402289.6277778,0
9.0,-45.66,,,2047756.5,1637402289.7055554,0
9.0,-81.978,1.438763,34.03,2049633.0,1637402289.7833333,0
9.0,-42.412,,,2052606.0,1637402289.8611112,0
9.0,31.412,,,2053946.0,1637402289.9388888,0
9.0,55.086,1.438763,34.03,2044460.5,1637402290.0166667,0
9.0,57.339999999999996,,,2039396.0,1637402290.0944445,0
9.0,63.129999999999995,,,2037282.5,1637402290.1722221,0
9.0,60.4025,,,2035902.5,1637402290.25,0
9.0,47.083999999999996,1.437483,34.05,2035628.5,1637402290.3277779,0
9.0,33.809999999999995,,,2037510.5,1637402290.4055555,0
9.0,23.254,,,2040302.0,1637402290.4833333,0
9.0,13.358,1.436202,34.05,2043336.0,1637402290.5611112,0
9.0,1.7119999999999997,,,2047220.5,1637402290.6388888,0
9.0,-9.228,,,2051669.5,1637402290.7166667,0
9.0,-23.258,1.432359,34.05,2056729.5,1637402290.7944446,0
9.0,-38.160000000000004,,,2062293.5,1637402290.8722222,0
9.0,-61.486000000000004,,,2067917.5,1637402290.95,0
9.0,-84.994,1.431079,34.05,2073863.5,1637402291.0277777,0
9.0,-122.606,,,2079971.0,1637402291.1055555,0
9.0,-74.09,,,2086031.5,1637402291.1833334,0
9.0,24.106,1.429798,34.07,2082727.5,1637402291.261111,0
9.0,52.06,,,2077764.5,1637402291.338889,0
9.0,58.326,,,2077506.0,1637402291.4166667,0
9.0,67.286,,,2077904.0,1637402291.4944444,0
9.0,64.638,1.429798,34.07,2078516.5,1637402291.5722222,0
9.0,47.354,,,2079551.0,1637402291.65,0
9.0,31.394,,,2082685.0,1637402291.7277777,0
9.0,19.999999999999996,1.434921,34.07,2086288.5,1637402291.8055556,0
9.0,7.628,,,2090032.0,1637402291.8833334,0
9.0,-7.438,,,2092844.0,1637402291.961111,0
9.0,-25.21,1.440044,34.07,2096358.5,1637402292.038889,0
9.0,-44.589999999999996,,,2101060.5,1637402292.1166666,0
9.0,-67.318,,,2106151.5,1637402292.1944444,0
9.0,-99.85400000000001,1.438763,34.07,2111123.5,1637402292.2722223,0
9.0,-97.362,,,2117724.6666666665,1637402292.35,0
9.0,-1.7599999999999987,,,2122307.5,1637402292.4277778,0
9.0,41.81400000000001,1.436202,34.07,2118248.0,1637402292.5055556,0
9.0,45.658,,,2116628.0,1637402292.5833333,0
9.0,52.6,,,2117317.0,1637402292.661111,0
9.0,58.025999999999996,,,2119251.5,1637402292.738889,0
9.0,46.516,1.436202,34.07,2119991.0,1637402292.8166666,0
9.0,27.302,,,2122622.0,1637402292.8944445,0
9.0,14.443999999999999,,,2125962.5,1637402292.9722223,0
9.0,-1.7119999999999997,1.441325,34.07,2129606.5,1637402293.05,0
9.0,-22.056,,,2133348.5,1637402293.1277778,0
9.0,-48.25,,,2137388.0,1637402293.2055554,0
9.0,-75.942,1.436202,34.03,2141744.5,1637402293.2833333,0
9.0,-91.168,,,2146048.5,1637402293.3611112,0
9.0,-12.995999999999999,,,2150537.5,1637402293.4388888,0
9.0,40.089999999999996,1.43364,34.03,2148268.5,1637402293.5166667,0
9.0,36.968,,,2146042.5,1637402293.5944445,0
9.0,39.63,,,2148008.0,1637402293.6722221,0
9.0,48.267500000000005,,,2149682.0,1637402293.75,0
9.0,42.284000000000006,1.432359,34.03,2150414.0,1637402293.8277779,0
9.0,21.407999999999998,,,2152037.5,1637402293.9055555,0
9.0,10.325999999999999,,,2155142.5,1637402293.9833333,0
9.0,-3.8760000000000003,1.428517,34.03,2158412.0,1637402294.0611112,0
9.0,-17.586000000000002,,,2161946.5,1637402294.1388888,0
9.0,-40.72,,,2164629.0,1637402294.2166667,0
9.0,-63.653999999999996,1.437483,34.07,2167502.0,1637402294.2944446,0
9.0,-97.81,,,2171275.5,1637402294.3722222,0
9.0,-47.656,,,2175588.0,1637402294.45,0
9.0,26.601999999999997,1.43364,34.07,2178798.0,1637402294.5277777,0
9.0,38.465999999999994,,,2174673.5,1637402294.6055555,0
9.0,36.774,,,2172018.0,1637402294.6833334,0
9.0,44.99,1.438763,34.07,2172257.5,1637402294.761111,0
9.0,45.464,,,2172736.5,1637402294.838889,0
9.0,27.753999999999998,,,2173094.5,1637402294.9166667,0
9.0,13.16,,,2174458.0,1637402294.9944444,0
9.0,1.576,1.440044,34.07,2176696.5,1637402295.0722222,0
9.0,-12.874,,,2179216.0,1637402295.15,0
9.0,-30.906,,,2181907.0,1637402295.2277777,0
9.0,-54.78399999999999,1.438763,34.05,2184904.5,1637402295.3055556,0
9.0,-81.238,,,2188204.0,1637402295.3833334,0
9.0,-110.28,,,2191783.0,1637402295.461111,0
9.0,-38.742000000000004,1.437483,34.05,2194540.0,1637402295.538889,0
9.0,35.124,,,2196253.0,1637402295.6166666,0
9.0,49.678,,,2191086.0,1637402295.6944444,0
9.0,54.694,1.434921,34.05,2187628.5,1637402295.7722223,0
9.0,61.70399999999999,,,2186909.5,1637402295.85,0
9.0,57.60799999999999,,,2186600.5,1637402295.9277778,0
9.0,38.903999999999996,1.434921,34.05,2186009.5,1637402296.0055556,0
9.0,21.508,,,2186721.0,1637402296.0833333,0
9.0,7.446000000000001,,,2188570.5,1637402296.161111,0
9.0,-9.443999999999999,,,2190496.5,1637402296.238889,0
9.0,-30.642000000000003,1.440044,34.07,2192661.0,1637402296.3166666,0
9.0,-53.434000000000005,,,2195079.5,1637402296.3944445,0
9.0,-84.75399999999999,,,2197955.0,1637402296.4722223,0
9.0,-92.928,1.436202,34.07,2201093.5,1637402296.55,0
9.0,-6.997999999999999,,,2204152.5,1637402296.6277778,0
9.0,41.826,,,2202763.5,1637402296.7055554,0
9.0,42.71,1.434921,34.07,2198151.5,1637402296.7833333,0
9.0,50.126,,,2197286.5,1637402296.8611112,0
9.0,58.992,,,2197812.5,1637402296.9388888,0
9.0,49.222,1.437483,34.07,2197444.0,1637402297.0166667,0
9.0,30.082,,,2197636.5,1637402297.0944445,0
9.0,13.072,,,2198649.5,1637402297.1722221,0
9.0,0.8275,,,2200291.5,1637402297.25,0
9.0,-13.160000000000002,1.442606,34.03,2202418.5,1637402297.3277779,0
9.0,-34.862,,,2204466.5,1637402297.4055555,0
9.0,-60.854,,,2206883.5,1637402297.4833333,0
9.0,-93.114,1.440044,34.03,2209539.5,1637402297.5611112,0
9.0,-106.48999999999998,,,2212693.5,1637402297.6388888,0
9.0,-20.496000000000002,,,2215971.5,1637402297.7166667,0
9.0,37.958000000000006,1.442606,34.03,2214546.5,1637402297.7944446,0
9.0,47.524,,,2209530.5,1637402297.8722222,0
9.0,56.19799999999999,,,2208048.0,1637402297.95,0
9.0,65.314,1.445167,34.03,2207720.0,1637402298.0277777,0
9.0,57.862,,,2207139.0,1637402298.1055555,0
9.0,38.324,,,2207079.0,1637402298.1833334,0
9.0,24.221999999999998,1.441325,34.05,2208173.0,1637402298.261111,0
9.0,10.16,,,2209794.5,1637402298.338889,0
9.0,-7.153999999999999,,,2211302.0,1637402298.4166667,0
9.0,-26.454,,,2213327.5,1637402298.4944444,0
9.0,-51.80800000000001,1.434921,34.05,2215902.0,1637402298.5722222,0
9.0,-76.632,,,2218028.0,1637402298.65,0
9.0,-115.53200000000001,,,2220090.5,1637402298.7277777,0
9.0,-72.768,1.441325,34.05,2222824.5,1637402298.8055556,0
9.0,16.45,,,2225172.5,1637402298.8833334,0
9.0,42.28,,,2220591.5,1637402298.961111,0
9.0,46.044,1.442606,34.05,2216552.0,1637402299.038889,0
9.0,56.68399999999999,,,2215201.5,1637402299.1166666,0
9.0,57.888,,,2214272.0,1637402299.1944444,0
9.0,42.89999999999999,1.440044,34.03,2213210.0,1637402299.2722223,0
9.0,27.576,,,2212893.5,1637402299.35,0
9.0,13.315999999999999,,,2213597.0,1637402299.4277778,0
9.0,-3.4239999999999995,1.436202,34.03,2215108.6666666665,1637402299.5055556,0
9.0,-27.178000000000004,,,2216447.0,1637402299.5833333,0
9.0,-52.846000000000004,,,2217953.0,1637402299.661111,0
9.0,-85.16,,,2220023.0,1637402299.738889,0
9.0,-97.78399999999999,1.445167,34.03,2222423.3333333335,1637402299.8166666,0
9.0,-15.056000000000001,,,2225361.5,1637402299.8944445,0
9.0,37.828,,,2221357.5,1637402299.9722223,0
9.0,42.288,1.442606,34.03,2216418.0,1637402300.05,0
9.0,50.044000000000004,,,2214832.5,1637402300.1277778,0
9.0,59.112,,,2213720.5,1637402300.2055554,0
9.0,49.702000000000005,1.445167,34.03,2212528.5,1637402300.2833333,0
9.0,29.165999999999997,,,2211254.0,1637402300.3611112,0
9.0,11.574000000000002,,,2211677.5,1637402300.4388888,0
9.0,-6.354000000000001,1.442606,34.03,2212423.5,1637402300.5166667,0
9.0,-28.110000000000003,,,2213562.5,1637402300.5944445,0
9.0,-57.05,,,2214868.5,1637402300.6722221,0
9.0,-83.39999999999999,,,2216558.5,1637402300.75,0
9.0,-115.298,1.445167,34.03,2218572.5,1637402300.8277779,0
9.0,-54.081999999999994,,,2220747.0,1637402300.9055555,0
9.0,26.398000000000003,,,2218964.5,1637402300.9833333,0
9.0,49.468,1.440044,34.03,2214548.0,1637402301.0611112,0
9.0,57.355999999999995,,,2207910.0,1637402301.1388888,0
9.0,66.204,,,2204525.5,1637402301.2166667,0
9.0,64.59400000000001,1.441325,34.03,2201745.5,1637402301.2944446,0
9.0,47.403999999999996,,,2198793.0,1637402301.3722222,0
9.0,32.788,,,2197138.5,1637402301.45,0
9.0,15.696000000000002,1.438763,34.03,2196663.5,1637402301.5277777,0
9.0,-1.1780000000000004,,,2196378.5,1637402301.6055555,0
9.0,-23.684,,,2196534.5,1637402301.6833334,0
9.0,-50.306000000000004,1.442606,34.03,2197259.5,1637402301.761111,0
9.0,-76.088,,,2198401.5,1637402301.838889,0
9.0,-117.422,,,2199871.5,1637402301.9166667,0
9.0,-101.074,,,2201493.5,1637402301.9944444,0
9.0,3.845999999999999,1.441325,34.03,2203063.0,1637402302.0722222,0
9.0,52.938,,,2195753.0,1637402302.15,0
9.0,59.432,,,2188071.5,1637402302.2277777,0
9.0,69.624,1.442606,34.03,2183442.0,1637402302.3055556,0
9.0,69.358,,,2179308.5,1637402302.3833334,0
9.0,54.153999999999996,,,2175625.5,1637402302.461111,0
9.0,35.66,1.447729,34.03,2173655.0,1637402302.538889,0
9.0,19.966,,,2173120.5,1637402302.6166666,0
9.0,1.4239999999999997,,,2172631.5,1637402302.6944444,0
9.0,-18.558,1.44901,34.03,2172376.0,1637402302.7722223,0
9.0,-41.788,,,2172337.5,1637402302.85,0
9.0,-65.11,,,2172947.0,1637402302.9277778,0
9.0,-105.374,1.447729,34.03,2174096.0,1637402303.0055556,0
9.0,-69.838,,,2175632.5,1637402303.0833333,0
9.0,14.906,,,2176928.0,1637402303.161111,0
9.0,47.534,,,2170078.0,1637402303.238889,0
9.0,56.903999999999996,1.446448,34.03,2163604.0,1637402303.3166666,0
9.0,66.63399999999999,,,2159672.0,1637402303.3944445,0
9.0,67.966,,,2157627.0,1637402303.4722223,0
9.0,50.763999999999996,1.44901,34.03,2155744.0,1637402303.55,0
9.0,35.958,,,2153937.5,1637402303.6277778,0
9.0,20.346,,,2153984.5,1637402303.7055554,0
9.0,4.532,1.445167,34.03,2154513.5,1637402303.7833333,0
9.0,-15.319999999999999,,,2155388.5,1637402303.8611112,0
9.0,-39.07000000000001,,,2156531.0,1637402303.9388888,0
9.0,-66.006,1.443887,34.03,2158797.0,1637402304.0166667,0
9.0,-101.53600000000002,,,2161687.5,1637402304.0944445,0
9.0,-105.026,,,2164728.5,1637402304.1722221,0
9.0,-17.3075,,,2167820.5,1637402304.25,0
9.0,37.946000000000005,1.443887,34.03,2168052.0,1637402304.3277779,0
9.0,51.553999999999995,,,2162378.0,1637402304.4055555,0
9.0,58.602,,,2160133.5,1637402304.4833333,0
9.0,64.942,1.445167,34.03,2159275.5,1637402304.5611112,0
9.0,55.658,,,2158337.5,1637402304.6388888,0
9.0,35.788000000000004,,,2158274.5,1637402304.7166667,0
9.0,21.014000000000003,1.443887,34.03,2159548.5,1637402304.7944446,0
9.0,4.6,,,2161262.5,1637402304.8722222,0
9.0,-13.863999999999999,,,2163267.0,1637402304.95,0
9.0,-35.33,1.451571,34.03,2165543.0,1637402305.0277777,0
9.0,-58.08599999999999,,,2168592.5,1637402305.1055555,0
9.0,-91.49600000000001,,,2170922.0,1637402305.1833334,0
9.0,-83.936,1.454133,34.03,2173260.5,1637402305.261111,0
9.0,6.988000000000001,,,2176775.0,1637402305.338889,0
9.0,45.013999999999996,,,2176924.0,1637402305.4166667,0
9.0,48.532,,,2173426.5,1637402305.4944444,0
9.0,56.138,1.452852,34.03,2173374.5,1637402305.5722222,0
9.0,58.564,,,2173777.5,1637402305.65,0
9.0,43.576,,,2173851.0,1637402305.7277777,0
9.0,27.022000000000002,1.44901,34.03,2174676.0,1637402305.8055556,0
9.0,12.942000000000002,,,2176595.0,1637402305.8833334,0
9.0,-0.9780000000000001,,,2178749.5,1637402305.961111,0
9.0,-20.212,1.451571,34.03,2180604.0,1637402306.038889,0
9.0,-41.634,,,2182202.0,1637402306.1166666,0
9.0,-65.118,,,2184896.5,1637402306.1944444,0
9.0,-96.74600000000001,1.452852,34.0,2187822.5,1637402306.2722223,0
9.0,-94.724,,,2190943.5,1637402306.35,0
9.0,-3.2639999999999985,,,2194366.5,1637402306.4277778,0
9.0,41.78,1.44901,34.0,2196064.5,1637402306.5055556,0
9.0,51.91600000000001,,,2192284.0,1637402306.5833333,0
9.0,58.580000000000005,,,2190563.0,1637402306.661111,0
9.0,59.077999999999996,,,2189972.0,1637402306.738889,0
9.0,47.05800000000001,1.443887,34.0,2189780.5,1637402306.8166666,0
9.0,28.139999999999997,,,2190047.0,1637402306.8944445,0
9.0,16.188,,,2191219.0,1637402306.9722223,0
9.0,0.07000000000000046,1.443887,34.0,2192843.5,1637402307.05,0
9.0,-18.396,,,2194597.0,1637402307.1277778,0
9.0,-39.512,,,2195930.5,1637402307.2055554,0
9.0,-60.522000000000006,1.446448,34.0,2196733.0,1637402307.2833333,0
9.0,-91.1,,,2199418.0,1637402307.3611112,0
9.0,-76.856,,,2202769.5,1637402307.4388888,0
9.0,10.934000000000001,1.445167,34.0,2205961.0,1637402307.5166667,0
9.0,43.172,,,2206123.0,1637402307.5944445,0
9.0,44.2,,,2202843.5,1637402307.6722221,0
9.0,51.699999999999996,,,2201583.0,1637402307.75,0
9.0,54.508,1.446448,34.0,2201594.0,1637402307.8277779,0
9.0,42.522000000000006,,,2201553.5,1637402307.9055555,0
9.0,25.858000000000004,,,2201919.5,1637402307.9833333,0
9.0,13.325999999999999,1.454133,34.0,2203271.5,1637402308.0611112,0
9.0,0.11399999999999988,,,2204789.0,1637402308.1388888,0
9.0,-17.916,,,2206655.5,1637402308.2166667,0
9.0,-38.366,1.454133,34.0,2208983.5,1637402308.2944446,0
9.0,-64.772,,,2211305.0,1637402308.3722222,0
9.0,-93.794,,,2213922.0,1637402308.45,0
9.0,-113.24600000000001,1.455414,34.0,2216854.0,1637402308.5277777,0
9.0,-27.440000000000005,,,2219761.0,1637402308.6055555,0
9.0,38.013999999999996,,,2220155.0,1637402308.6833334,0
9.0,51.57000000000001,1.455414,34.0,2215956.0,1637402308.761111,0
9.0,59.327999999999996,,,2214273.0,1637402308.838889,0
9.0,62.620000000000005,,,2213325.0,1637402308.9166667,0
9.0,55.370000000000005,,,2213217.0,1637402308.9944444,0
9.0,37.548,1.452852,34.0,2212550.0,1637402309.0722222,0
9.0,26.151999999999997,,,2212939.5,1637402309.15,0
9.0,13.116000000000003,,,2213823.5,1637402309.2277777,0
9.0,0.142,1.451571,34.0,2215541.6666666665,1637402309.3055556,0
9.0,-19.785999999999998,,,2217557.5,1637402309.3833334,0
9.0,-40.61,,,2219076.0,1637402309.461111,0
9.0,-64.848,1.446448,34.0,2220618.5,1637402309.538889,0
9.0,-94.96799999999999,,,2223160.5,1637402309.6166666,0
9.0,-115.65,,,2225923.6666666665,1637402309.6944444,0
9.0,-33.12,1.445167,34.0,2228858.0,1637402309.7722223,0
9.0,31.618000000000002,,,2230992.0,1637402309.85,0
9.0,44.486000000000004,,,2228630.5,1637402309.9277778,0
9.0,53.65,1.446448,34.0,2225079.5,1637402310.0055556,0
9.0,61.85999999999999,,,2223897.5,1637402310.0833333,0
9.0,56.586,,,2222860.0,1637402310.161111,0
9.0,37.29,,,2221738.5,1637402310.238889,0
9.0,20.601999999999997,1.446448,33.99,2221401.5,1637402310.3166666,0
9.0,3.0860000000000003,,,2222106.0,1637402310.3944445,0
9.0,-14.478,,,2223237.0,1637402310.4722223,0
9.0,-40.552,1.450291,33.99,2224563.5,1637402310.55,0
9.0,-65.46600000000001,,,2226143.5,1637402310.6277778,0
9.0,-101.33200000000001,,,2227969.0,1637402310.7055554,0
9.0,-55.94,1.452852,33.99,2230276.5,1637402310.7833333,0
9.0,25.522000000000002,,,2232659.5,1637402310.8611112,0
9.0,47.114,,,2230721.5,1637402310.9388888,0
9.0,52.568,1.452852,33.99,2226953.0,1637402311.0166667,0
9.0,63.666,,,2225521.0,1637402311.0944445,0
9.0,64.90400000000001,,,2224940.0,1637402311.1722221,0
9.0,44.3025,,,2223942.0,1637402311.25,0
9.0,20.4,1.454133,33.99,2223900.5,1637402311.3277779,0
9.0,0.7020000000000005,,,2224614.0,1637402311.4055555,0
9.0,-18.176,,,2225643.5,1637402311.4833333,0
9.0,-42.916,1.450291,33.99,2227153.0,1637402311.5611112,0
9.0,-69.73400000000001,,,2228394.0,1637402311.6388888,0
9.0,-106.896,,,2229663.5,1637402311.7166667,0
9.0,-112.628,1.451571,33.99,2231803.5,1637402311.7944446,0
9.0,-17.854,,,2234166.5,1637402311.8722222,0
9.0,38.418,,,2234657.5,1637402311.95,0
9.0,54.181999999999995,1.446448,33.99,2229453.5,1637402312.0277777,0
9.0,66.05199999999999,,,2226067.5,1637402312.1055555,0
9.0,71.106,,,2224154.5,1637402312.1833334,0
9.0,58.786,1.446448,33.99,2222401.0,1637402312.261111,0
9.0,38.848,,,2221064.5,1637402312.338889,0
9.0,22.91,,,2220963.0,1637402312.4166667,0
9.0,6.836,,,2221121.5,1637402312.4944444,0
9.0,-13.602,1.447729,33.99,2221554.5,1637402312.5722222,0
9.0,-35.698,,,2222090.0,1637402312.65,0
9.0,-63.160000000000004,,,2223042.5,1637402312.7277777,0
9.0,-94.596,1.446448,33.99,2224456.0,1637402312.8055556,0
9.0,-114.12,,,2226112.0,1637402312.8833334,0
9.0,-27.218,,,2227932.0,1637402312.961111,0
9.0,35.648,1.451571,33.99,2228053.0,1637402313.038889,0
9.0,48.414,,,2223209.0,1637402313.1166666,0
9.0,58.45400000000001,,,2219173.0,1637402313.1944444,0
9.0,68.768,1.452852,33.99,2216835.5,1637402313.2722223,0
9.0,59.29599999999999,,,2215330.0,1637402313.35,0
9.0,37.214,,,2213601.5,1637402313.4277778,0
9.0,21.522,1.451571,33.99,2213053.5,1637402313.5055556,0
9.0,2.264,,,2213445.5,1637402313.5833333,0
9.0,-20.041999999999998,,,2214034.5,1637402313.661111,0
9.0,-50.18,,,2214973.5,1637402313.738889,0
9.0,-80.28,1.454133,33.99,2216518.0,1637402313.8166666,0
9.0,-115.396,,,2218625.5,1637402313.8944445,0
9.0,-48.032,,,2220720.0,1637402313.9722223,0
9.0,31.953999999999997,1.450291,33.99,2222286.5,1637402314.05,0
9.0,58.148,,,2217699.0,1637402314.1277778,0
9.0,67.122,,,2214033.5,1637402314.2055554,0
9.0,72.62199999999999,1.454133,33.97,2212125.0,1637402314.2833333,0
9.0,70.022,,,2211377.0,1637402314.3611112,0
9.0,49.888000000000005,,,2210189.0,1637402314.4388888,0
9.0,35.608,1.455414,33.97,2209983.5,1637402314.5166667,0
9.0,19.47,,,2210493.0,1637402314.5944445,0
9.0,5.172,,,2211521.0,1637402314.6722221,0
9.0,-14.46,,,2212816.0,1637402314.75,0
9.0,-34.396,1.451571,33.97,2214423.5,1637402314.8277779,0
9.0,-61.402,,,2216576.5,1637402314.9055555,0
9.0,-88.66000000000001,,,2218951.0,1637402314.9833333,0
9.0,-128.704,1.454133,33.97,2221788.0,1637402315.0611112,0
9.0,-74.236,,,2224333.0,1637402315.1388888,0
9.0,19.633999999999997,,,2226484.5,1637402315.2166667,0
9.0,50.242000000000004,1.447729,33.99,2223321.5,1637402315.2944446,0
9.0,60.498000000000005,,,2220453.0,1637402315.3722222,0
9.0,69.78,,,2219742.0,1637402315.45,0
9.0,68.632,1.445167,33.99,2219521.5,1637402315.5277777,0
9.0,48.616,,,2219181.0,1637402315.6055555,0
9.0,31.07,,,2219576.0,1637402315.6833334,0
9.0,15.168000000000001,1.447729,33.99,2220477.0,1637402315.761111,0
9.0,-1.936,,,2221920.5,1637402315.838889,0
9.0,-23.383999999999997,,,2223727.0,1637402315.9166667,0
9.0,-50.882,,,2226082.0,1637402315.9944444,0
9.0,-74.61599999999999,1.454133,33.99,2229038.0,1637402316.0722222,0
9.0,-114.44200000000001,,,2231788.5,1637402316.15,0
9.0,-68.44000000000001,,,2235231.5,1637402316.2277777,0
9.0,26.688,1.457975,33.99,2238729.5,1637402316.3055556,0
9.0,55.19200000000001,,,2236030.0,1637402316.3833334,0
9.0,60.6,,,2230563.5,1637402316.461111,0
9.0,68.078,1.456694,33.99,2228195.0,1637402316.538889,0
9.0,67.99000000000001,,,2227213.5,1637402316.6166666,0
9.0,49.022,,,2226420.0,1637402316.6944444,0
9.0,30.874000000000002,1.457975,33.99,2226265.0,1637402316.7722223,0
9.0,16.002000000000002,,,2227444.0,1637402316.85,0
9.0,-0.08200000000000003,,,2228488.0,1637402316.9277778,0
9.0,-21.018,1.455414,33.99,2229921.5,1637402317.0055556,0
9.0,-47.018,,,2230965.0,1637402317.0833333,0
9.0,-73.012,,,2232583.0,1637402317.161111,0
9.0,-110.97999999999999,,,2234487.0,1637402317.238889,0
9.0,-107.11200000000001,1.452852,33.97,2236782.0,1637402317.3166666,0
9.0,-1.5599999999999994,,,2239030.5,1637402317.3944445,0
9.0,47.458,,,2239772.0,1637402317.4722223,0
9.0,54.6,1.454133,33.97,2235651.5,1637402317.55,0
9.0,63.084,,,2233226.0,1637402317.6277778,0
9.0,68.02000000000001,,,2232074.0,1637402317.7055554,0
9.0,54.898,1.44901,33.97,2231066.0,1637402317.7833333,0
9.0,32.394000000000005,,,2229296.5,1637402317.8611112,0
9.0,17.072,,,2228821.5,1637402317.9388888,0
9.0,-3.8259999999999996,1.450291,33.97,2228890.5,1637402318.0166667,0
9.0,-22.802,,,2228023.5,1637402318.0944445,0
9.0,-48.182,,,2227375.0,1637402318.1722221,0
9.0,-69.77250000000001,,,2226926.5,1637402318.25,0
9.0,-103.862,1.450291,33.99,2226877.0,1637402318.3277779,0
9.0,-71.132,,,2227551.0,1637402318.4055555,0
9.0,23.806,,,2231288.0,1637402318.4833333,0
9.0,51.33200000000001,1.451571,33.99,2228500.5,1637402318.5611112,0
9.0,51.95399999999999,,,2224918.5,1637402318.6388888,0
9.0,59.848,,,2222567.5,1637402318.7166667,0
9.0,60.94,1.456694,33.99,2220364.5,1637402318.7944446,0
9.0,43.338,,,2218117.5,1637402318.8722222,0
9.0,26.315999999999995,,,2216544.5,1637402318.95,0
9.0,11.751999999999999,1.457975,33.99,2215984.5,1637402319.0277777,0
9.0,-2.4799999999999995,,,2215969.5,1637402319.1055555,0
9.0,-19.21,,,2215950.5,1637402319.1833334,0
9.0,-39.746,1.463098,33.97,2216438.0,1637402319.261111,0
9.0,-62.926,,,2217034.0,1637402319.338889,0
9.0,-94.51599999999999,,,2218163.5,1637402319.4166667,0
9.0,-103.704,,,2219239.5,1637402319.4944444,0
9.0,-14.442000000000002,1.452852,33.97,2220499.0,1637402319.5722222,0
9.0,40.276,,,2216760.0,1637402319.65,0
9.0,50.312,,,2213222.0,1637402319.7277777,0
9.0,56.836,1.455414,33.97,2211549.0,1637402319.8055556,0
9.0,60.40400000000001,,,2210263.0,1637402319.8833334,0
9.0,53.029999999999994,,,2209246.0,1637402319.961111,0
9.0,33.242000000000004,1.44901,33.97,2208943.0,1637402320.038889,0
9.0,20.032000000000004,,,2209263.0,1637402320.1166666,0
9.0,7.108000000000001,,,2209481.0,1637402320.1944444,0
9.0,-5.752,1.447729,33.97,2210246.5,1637402320.2722223,0
9.0,-21.349999999999998,,,2211035.0,1637402320.35,0
9.0,-40.872,,,2212497.0,1637402320.4277778,0
9.0,-61.11800000000001,1.447729,33.97,2214142.0,1637402320.5055556,0
9.0,-90.20200000000001,,,2216024.0,1637402320.5833333,0
9.0,-80.188,,,2217885.0,1637402320.661111,0
9.0,3.2960000000000003,,,2217414.5,1637402320.738889,0
9.0,35.544,1.450291,33.97,2214166.0,1637402320.8166666,0
9.0,34.1,,,2213115.0,1637402320.8944445,0
9.0,43.462,,,2213058.5,1637402320.9722223,0
9.0,49.476,1.447729,33.97,2212669.5,1637402321.05,0
9.0,38.007999999999996,,,2212584.5,1637402321.1277778,0
9.0,22.052,,,2213520.5,1637402321.2055554,0
9.0,8.291999999999998,1.451571,33.97,2214479.5,1637402321.2833333,0
9.0,-5.502,,,2215593.5,1637402321.3611112,0
9.0,-20.312,,,2216971.5,1637402321.4388888,0
9.0,-41.818,1.455414,33.97,2218680.0,1637402321.5166667,0
9.0,-63.30799999999999,,,2220789.5,1637402321.5944445,0
9.0,-95.53,,,2222699.0,1637402321.6722221,0
9.0,-74.15,,,2224196.5,1637402321.75,0
9.0,1.9140000000000001,1.456694,33.97,2222003.5,1637402321.8277779,0
9.0,36.992000000000004,,,2220466.5,1637402321.9055555,0
9.0,42.782,,,2220136.0,1637402321.9833333,0
9.0,50.739999999999995,1.464379,33.97,2220185.5,1637402322.0611112,0
9.0,54.984,,,2219713.0,1637402322.1388888,0
9.0,43.75,,,2220172.5,1637402322.2166667,0
9.0,28.880000000000003,1.455414,33.97,2220918.5,1637402322.2944446,0
9.0,18.794000000000004,,,2222305.5,1637402322.3722222,0
9.0,8.578,,,2223570.5,1637402322.45,0
9.0,-4.962,1.455414,33.97,2225150.5,1637402322.5277777,0
9.0,-20.5,,,2226746.5,1637402322.6055555,0
9.0,-39.368,,,2228583.5,1637402322.6833334,0
9.0,-61.552,1.452852,33.97,2230499.5,1637402322.761111,0
9.0,-93.182,,,2232393.5,1637402322.838889,0
9.0,-96.438,,,2234544.0,1637402322.9166667,0
9.0,-13.626,,,2233147.0,1637402322.9944444,0
9.0,31.278,1.452852,33.97,2230663.5,1637402323.0722222,0
9.0,38.65,,,2229919.5,1637402323.15,0
9.0,46.790000000000006,,,2229599.0,1637402323.2277777,0
9.0,52.754,1.452852,33.99,2229039.5,1637402323.3055556,0
9.0,46.044,,,2228714.0,1637402323.3833334,0
9.0,30.186,,,2229031.5,1637402323.461111,0
9.0,15.835999999999999,1.454133,33.99,2229543.0,1637402323.538889,0
9.0,0.18599999999999994,,,2230225.5,1637402323.6166666,0
9.0,-15.651999999999997,,,2231006.0,1637402323.6944444,0
9.0,-38.864,1.454133,33.99,2232122.5,1637402323.7722223,0
9.0,-61.854,,,2233089.0,1637402323.85,0
9.0,-93.888,,,2234515.0,1637402323.9277778,0
9.0,-56.262,1.456694,33.99,2235219.0,1637402324.0055556,0
9.0,20.226,,,2232310.0,1637402324.0833333,0
9.0,38.086,,,2229839.0,1637402324.161111,0
9.0,39.92,,,2228909.5,1637402324.238889,0
9.0,51.762,1.456694,33.99,2228022.0,1637402324.3166666,0
9.0,53.34400000000001,,,2226831.0,1637402324.3944445,0
9.0,37.886,,,2226567.0,1637402324.4722223,0
9.0,21.93,1.460537,33.99,2226792.0,1637402324.55,0
9.0,6.04,,,2227108.5,1637402324.6277778,0
9.0,-11.876,,,2227635.0,1637402324.7055554,0
9.0,-37.374,1.461818,33.99,2228177.0,1637402324.7833333,0
9.0,-64.13799999999999,,,2228858.0,1637402324.8611112,0
9.0,-101.184,,,2229909.0,1637402324.9388888,0
9.0,-102.826,1.460537,33.99,2231044.0,1637402325.0166667,0
9.0,-13.858,,,2229976.5,1637402325.0944445,0
9.0,34.746,,,2225364.0,1637402325.1722221,0
9.0,46.6425,,,2222457.0,1637402325.25,0
9.0,55.525999999999996,1.455414,33.97,2220072.0,1637402325.3277779,0
9.0,63.53599999999999,,,2217977.0,1637402325.4055555,0
9.0,55.374,,,2215928.5,1637402325.4833333,0
9.0,37.36,1.455414,33.97,2214872.5,1637402325.5611112,0
9.0,20.253999999999998,,,2214067.5,1637402325.6388888,0
9.0,22.924,,,2213505.0,1637402325.7166667,0
9.0,24.892000000000003,1.452852,33.97,2213108.5,1637402325.7944446,0
9.0,3.622,,,2213155.5,1637402325.8722222,0
9.0,-20.052,,,2213377.5,1637402325.95,0
9.0,-53.266000000000005,1.451571,33.97,2213728.0,1637402326.0277777,0
9.0,-89.66600000000001,,,2214228.0,1637402326.1055555,0
9.0,-117.576,,,2214568.0,1637402326.1833334,0
9.0,-35.257999999999996,1.454133,33.97,2215328.0,1637402326.261111,0
9.0,35.260000000000005,,,2211823.5,1637402326.338889,0
9.0,50.018,,,2206439.5,1637402326.4166667,0
9.0,60.370000000000005,,,2203331.5,1637402326.4944444,0
9.0,69.834,1.456694,33.97,2200896.5,1637402326.5722222,0
9.0,63.83,,,2197920.0,1637402326.65,0
9.0,44.652,,,2196000.5,1637402326.7277777,0
9.0,31.458000000000006,1.456694,33.97,2194867.5,1637402326.8055556,0
9.0,16.036,,,2194095.0,1637402326.8833334,0
9.0,1.2400000000000004,,,2193663.0,1637402326.961111,0
9.0,-20.532,1.461818,33.97,2193468.0,1637402327.038889,0
9.0,-45.352,,,2193806.5,1637402327.1166666,0
9.0,-71.554,,,2194303.0,1637402327.1944444,0
9.0,-108.95599999999999,1.459256,33.95,2195218.0,1637402327.2722223,0
9.0,-110.38999999999999,,,2196336.5,1637402327.35,0
9.0,-10.858,,,2195458.5,1637402327.4277778,0
9.0,44.767999999999994,1.463098,33.95,2189737.0,1637402327.5055556,0
9.0,59.540000000000006,,,2186967.0,1637402327.5833333,0
9.0,69.418,,,2184885.5,1637402327.661111,0
9.0,75.42799999999998,,,2182602.5,1637402327.738889,0
9.0,65.1,1.457975,33.95,2180461.0,1637402327.8166666,0
9.0,45.754000000000005,,,2179114.5,1637402327.8944445,0
9.0,32.868,,,2179013.5,1637402327.9722223,0
9.0,20.759999999999998,1.454133,33.95,2179142.5,1637402328.05,0
9.0,5.9319999999999995,,,2179232.5,1637402328.1277778,0
9.0,-12.033999999999999,,,2179637.5,1637402328.2055554,0
9.0,-30.288,1.455414,33.97,2180735.5,1637402328.2833333,0
9.0,-55.410000000000004,,,2182155.0,1637402328.3611112,0
9.0,-80.714,,,2183596.5,1637402328.4388888,0
9.0,-122.30799999999999,1.457975,33.97,2185307.0,1637402328.5166667,0
9.0,-101.13,,,2187057.0,1637402328.5944445,0
9.0,4.958,,,2186862.0,1637402328.6722221,0
9.0,48.2275,,,2182374.5,1637402328.75,0
9.0,57.198,1.460537,33.97,2180228.0,1637402328.8277779,0
9.0,65.97999999999999,,,2179066.5,1637402328.9055555,0
9.0,72.574,,,2178237.0,1637402328.9833333,0
9.0,63.03399999999999,1.459256,33.97,2177447.5,1637402329.0611112,0
9.0,41.79600000000001,,,2177228.5,1637402329.1388888,0
9.0,30.088,,,2177611.0,1637402329.2166667,0
9.0,17.32,1.464379,33.97,2178356.5,1637402329.2944446,0
9.0,3.0020000000000002,,,2179349.0,1637402329.3722222,0
9.0,-17.708,,,2180600.0,1637402329.45,0
9.0,-38.690000000000005,1.46566,33.97,2181678.0,1637402329.5277777,0
9.0,-62.68599999999999,,,2183045.5,1637402329.6055555,0
9.0,-91.178,,,2184815.5,1637402329.6833334,0
9.0,-111.846,1.46566,33.97,2186926.5,1637402329.761111,0
9.0,-20.642000000000003,,,2189216.0,1637402329.838889,0
9.0,45.467999999999996,,,2188238.0,1637402329.9166667,0
9.0,49.773999999999994,,,2184646.0,1637402329.9944444,0
9.0,56.0,1.463098,33.97,2183219.0,1637402330.0722222,0
9.0,65.38799999999999,,,2182517.0,1637402330.15,0
9.0,58.938,,,2181779.5,1637402330.2277777,0
9.0,38.11,1.46566,33.97,2181196.5,1637402330.3055556,0
9.0,23.462000000000003,,,2181764.5,1637402330.3833334,0
9.0,9.196000000000002,,,2182695.0,1637402330.461111,0
9.0,-7.331999999999999,1.461818,33.97,2183748.0,1637402330.538889,0
9.0,-27.334000000000003,,,2184210.5,1637402330.6166666,0
9.0,-53.122,,,2185556.0,1637402330.6944444,0
9.0,-77.988,1.460537,33.97,2187246.5,1637402330.7722223,0
9.0,-117.684,,,2189225.0,1637402330.85,0
9.0,-84.422,,,2190795.0,1637402330.9277778,0
9.0,17.916,1.455414,33.97,2192346.0,1637402331.0055556,0
9.0,51.236000000000004,,,2192313.5,1637402331.0833333,0
9.0,55.605999999999995,,,2187971.0,1637402331.161111,0
9.0,65.348,,,2186030.5,1637402331.238889,0
9.0,70.21199999999999,1.457975,33.95,2185131.0,1637402331.3166666,0
9.0,54.39,,,2183882.0,1637402331.3944445,0
9.0,35.688,,,2183322.5,1637402331.4722223,0
9.0,20.35,1.454133,33.95,2183502.5,1637402331.55,0
9.0,6.859999999999999,,,2184122.5,1637402331.6277778,0
9.0,-13.05,,,2185008.0,1637402331.7055554,0
9.0,-31.71,1.457975,33.95,2186033.0,1637402331.7833333,0
9.0,-57.16799999999999,,,2187657.5,1637402331.8611112,0
9.0,-82.936,,,2189457.0,1637402331.9388888,0
9.0,-122.80999999999999,1.463098,33.95,2191147.0,1637402332.0166667,0
9.0,-72.822,,,2192907.5,1637402332.0944445,0
9.0,23.498,,,2194487.0,1637402332.1722221,0
9.0,47.084999999999994,,,2191270.5,1637402332.25,0
9.0,50.8,1.463098,33.95,2187334.5,1637402332.3277779,0
9.0,62.2,,,2185268.0,1637402332.4055555,0
9.0,65.978,,,2183836.5,1637402332.4833333,0
9.0,50.644,1.460537,33.95,2182021.5,1637402332.5611112,0
9.0,30.96,,,2180969.0,1637402332.6388888,0
9.0,14.922000000000002,,,2181123.5,1637402332.7166667,0
9.0,-0.538,1.464379,33.95,2181512.5,1637402332.7944446,0
9.0,-19.66,,,2182320.3333333335,1637402332.8722222,0
9.0,-46.208,,,2182911.0,1637402332.95,0
9.0,-71.13199999999999,1.466941,33.95,2183715.5,1637402333.0277777,0
9.0,-108.47199999999998,,,2185168.5,1637402333.1055555,0
9.0,-61.641999999999996,,,2186780.0,1637402333.1833334,0
9.0,27.889999999999997,1.463098,33.97,2188284.5,1637402333.261111,0
9.0,49.581999999999994,,,2184432.5,1637402333.338889,0
9.0,50.618,,,2180049.0,1637402333.4166667,0
9.0,58.428,,,2177736.0,1637402333.4944444,0
9.0,59.286,1.460537,33.97,2175957.5,1637402333.5722222,0
9.0,44.364,,,2173821.5,1637402333.65,0
9.0,29.206,,,2172854.0,1637402333.7277777,0
9.0,15.963999999999999,1.460537,33.97,2172702.5,1637402333.8055556,0
9.0,5.656000000000001,,,2172672.5,1637402333.8833334,0
9.0,-9.448,,,2173128.5,1637402333.961111,0
9.0,-26.564,1.46566,33.97,2173805.5,1637402334.038889,0
9.0,-45.348,,,2174902.5,1637402334.1166666,0
9.0,-68.444,,,2176184.0,1637402334.1944444,0
9.0,-100.8,1.470783,33.95,2177305.0,1637402334.2722223,0
9.0,-95.03800000000001,,,2178653.0,1637402334.35,0
9.0,0.19599999999999868,,,2180528.5,1637402334.4277778,0
9.0,41.658,1.470783,33.95,2179718.0,1637402334.5055556,0
9.0,43.982000000000006,,,2174106.0,1637402334.5833333,0
9.0,52.09400000000001,,,2171119.5,1637402334.661111,0
9.0,57.65599999999999,,,2169272.5,1637402334.738889,0
9.0,47.257999999999996,1.470783,33.95,2167294.0,1637402334.8166666,0
9.0,30.546000000000003,,,2165686.5,1637402334.8944445,0
9.0,17.344,,,2165392.0,1637402334.9722223,0
9.0,7.718000000000001,1.472064,33.95,2165305.0,1637402335.05,0
9.0,-7.359999999999999,,,2165735.5,1637402335.1277778,0
9.0,-23.308,,,2166177.5,1637402335.2055554,0
9.0,-41.94,1.473345,33.95,2167196.5,1637402335.2833333,0
9.0,-61.648,,,2168377.0,1637402335.3611112,0
9.0,-93.848,,,2169859.5,1637402335.4388888,0
9.0,-76.982,1.470783,33.95,2171374.0,1637402335.5166667,0
9.0,9.190000000000001,,,2172793.5,1637402335.5944445,0
9.0,37.28,,,2170660.0,1637402335.6722221,0
9.0,33.927499999999995,,,2166751.5,1637402335.75,0
9.0,43.06,1.477187,33.95,2164153.5,1637402335.8277779,0
9.0,52.976,,,2162982.5,1637402335.9055555,0
9.0,45.962,,,2161447.0,1637402335.9833333,0
9.0,29.339999999999996,1.470783,33.95,2160218.5,1637402336.0611112,0
9.0,16.726,,,2160372.0,1637402336.1388888,0
9.0,4.712,,,2160876.0,1637402336.2166667,0
9.0,-10.044,1.469502,33.95,2161453.0,1637402336.2944446,0
9.0,-25.806,,,2162247.5,1637402336.3722222,0
9.0,-51.548,,,2163601.5,1637402336.45,0
9.0,-75.11,1.470783,33.95,2165201.0,1637402336.5277777,0
9.0,-110.86600000000001,,,2166886.5,1637402336.6055555,0
9.0,-64.77799999999999,,,2168760.0,1637402336.6833334,0
9.0,16.088,1.470783,33.95,2169266.5,1637402336.761111,0
9.0,41.05,,,2164417.5,1637402336.838889,0
9.0,48.986,,,2161253.5,1637402336.9166667,0
9.0,59.04,,,2159324.5,1637402336.9944444,0
9.0,61.736000000000004,1.474626,33.95,2157632.5,1637402337.0722222,0
9.0,47.378,,,2156294.0,1637402337.15,0
9.0,32.136,,,2155996.0,1637402337.2277777,0
9.0,18.852,1.475906,33.93,2155897.0,1637402337.3055556,0
9.0,5.892,,,2156169.0,1637402337.3833334,0
9.0,-12.669999999999998,,,2156679.0,1637402337.461111,0
9.0,-33.876,1.477187,33.93,2157381.5,1637402337.538889,0
9.0,-56.227999999999994,,,2158487.0,1637402337.6166666,0
9.0,-84.332,,,2160181.0,1637402337.6944444,0
9.0,-105.018,1.478468,33.93,2161704.5,1637402337.7722223,0
9.0,-27.038,,,2163495.5,1637402337.85,0
9.0,30.856,,,2163245.5,1637402337.9277778,0
9.0,39.42,1.475906,33.93,2158458.5,1637402338.0055556,0
9.0,49.528,,,2156153.0,1637402338.0833333,0
9.0,59.74400000000001,,,2154785.0,1637402338.161111,0
9.0,53.838,,,2153249.5,1637402338.238889,0
9.0,35.891999999999996,1.473345,33.93,2152190.5,1637402338.3166666,0
9.0,23.618000000000002,,,2152284.0,1637402338.3944445,0
9.0,9.41,,,2152374.0,1637402338.4722223,0
9.0,-8.764,1.477187,33.93,2152867.0,1637402338.55,0
9.0,-33.112,,,2153701.0,1637402338.6277778,0
9.0,-60.778,,,2154661.5,1637402338.7055554,0
9.0,-95.404,1.472064,33.93,2155878.5,1637402338.7833333,0
9.0,-98.592,,,2157514.0,1637402338.8611112,0
9.0,-9.590000000000002,,,2159349.5,1637402338.9388888,0
9.0,38.821999999999996,1.470783,33.93,2158483.5,1637402339.0166667,0
9.0,52.46,,,2153616.5,1637402339.0944445,0
9.0,62.08399999999999,,,2151056.0,1637402339.1722221,0
9.0,66.94500000000001,,,2149214.0,1637402339.25,0
9.0,62.03800000000001,1.472064,33.93,2147749.5,1637402339.3277779,0
9.0,44.9,,,2146638.0,1637402339.4055555,0
9.0,33.0,,,2146713.5,1637402339.4833333,0
9.0,20.644,1.472064,33.93,2147232.5,1637402339.5611112,0
9.0,6.782000000000001,,,2147833.5,1637402339.6388888,0
9.0,-15.7,,,2148790.5,1637402339.7166667,0
9.0,-37.263999999999996,1.474626,33.93,2150110.5,1637402339.7944446,0
9.0,-64.0,,,2151712.5,1637402339.8722222,0
9.0,-96.732,,,2153579.5,1637402339.95,0
9.0,-117.346,1.478468,33.93,2155638.5,1637402340.0277777,0
9.0,-29.951999999999998,,,2157612.5,1637402340.1055555,0
9.0,32.848,,,2154952.0,1637402340.1833334,0
9.0,46.959999999999994,1.478468,33.95,2151385.5,1637402340.261111,0
9.0,57.378,,,2150475.0,1637402340.338889,0
9.0,65.43199999999999,,,2149401.5,1637402340.4166667,0
9.0,60.262,,,2148169.5,1637402340.4944444,0
9.0,41.624,1.474626,33.95,2147563.5,1637402340.5722222,0
9.0,25.631999999999998,,,2147765.0,1637402340.65,0
9.0,13.431999999999999,,,2148365.0,1637402340.7277777,0
9.0,-0.5139999999999999,1.477187,33.95,2148768.5,1637402340.8055556,0
9.0,-17.368000000000002,,,2149738.5,1637402340.8833334,0
9.0,-46.948,,,2151032.0,1637402340.961111,0
9.0,-75.77599999999998,1.478468,33.95,2152780.0,1637402341.038889,0
9.0,-110.05,,,2155104.0,1637402341.1166666,0
9.0,-44.552,,,2157903.0,1637402341.1944444,0
9.0,31.522000000000002,1.479749,33.95,2158714.0,1637402341.2722223,0
9.0,49.714,,,2155642.5,1637402341.35,0
9.0,56.620000000000005,,,2152577.3333333335,1637402341.4277778,0
9.0,64.484,1.469502,33.95,2151804.5,1637402341.5055556,0
9.0,61.958000000000006,,,2151235.0,1637402341.5833333,0
9.0,44.562,,,2151054.5,1637402341.661111,0
9.0,30.5,,,2151843.0,1637402341.738889,0
9.0,17.454,1.472064,33.95,2152714.0,1637402341.8166666,0
9.0,3.376,,,2153684.0,1637402341.8944445,0
9.0,-16.676,,,2155082.5,1637402341.9722223,0
9.0,-37.394000000000005,1.472064,33.95,2156888.5,1637402342.05,0
9.0,-63.396,,,2158934.0,1637402342.1277778,0
9.0,-93.112,,,2160900.5,1637402342.2055554,0
9.0,-112.958,1.475906,33.93,2163450.5,1637402342.2833333,0
9.0,-25.422000000000004,,,2165719.5,1637402342.3611112,0
9.0,37.84400000000001,,,2165560.5,1637402342.4388888,0
9.0,49.854,1.475906,33.93,2161971.0,1637402342.5166667,0
9.0,58.334,,,2161393.0,1637402342.5944445,0
9.0,64.648,,,2160563.5,1637402342.6722221,0
9.0,59.95,,,2159990.5,1637402342.75,0
9.0,41.714,1.477187,33.93,2159253.0,1637402342.8277779,0
9.0,24.956,,,2159512.5,1637402342.9055555,0
9.0,12.479999999999999,,,2160306.5,1637402342.9833333,0
9.0,-3.5900000000000007,1.479749,33.93,2161484.5,1637402343.0611112,0
9.0,-22.306,,,2162536.0,1637402343.1388888,0
9.0,-47.7,,,2163991.5,1637402343.2166667,0
9.0,-69.738,1.477187,33.93,2166064.0,1637402343.2944446,0
9.0,-101.498,,,2168127.0,1637402343.3722222,0
9.0,-55.55400000000001,,,2170425.0,1637402343.45,0
9.0,28.542,1.479749,33.93,2171895.5,1637402343.5277777,0
9.0,46.794,,,2168965.5,1637402343.6055555,0
9.0,46.96,,,2167344.5,1637402343.6833334,0
9.0,56.132000000000005,1.48103,33.93,2166947.0,1637402343.761111,0
9.0,55.742,,,2166786.5,1637402343.838889,0
9.0,38.312,,,2166429.5,1637402343.9166667,0
9.0,19.487999999999996,,,2167174.5,1637402343.9944444,0
9.0,6.836,1.474626,33.93,2168404.0,1637402344.0722222,0
9.0,-9.502,,,2169800.0,1637402344.15,0
9.0,-29.3,,,2171175.0,1637402344.2277777,0
9.0,-54.64200000000001,1.477187,33.93,2172964.0,1637402344.3055556,0
9.0,-81.958,,,2174835.5,1637402344.3833334,0
9.0,-103.01199999999999,,,2177136.5,1637402344.461111,0
9.0,-24.698,1.477187,33.93,2178852.0,1637402344.538889,0
9.0,38.876,,,2178910.5,1637402344.6166666,0
9.0,48.158,,,2174678.3333333335,1637402344.6944444,0
9.0,51.194,1.479749,33.93,2172908.0,1637402344.7722223,0
9.0,57.894000000000005,,,2172368.0,1637402344.85,0
9.0,51.403999999999996,,,2171848.0,1637402344.9277778,0
9.0,32.424,1.479749,33.93,2171332.5,1637402345.0055556,0
9.0,15.24,,,2171857.5,1637402345.0833333,0
9.0,3.3280000000000003,,,2172571.5,1637402345.161111,0
9.0,-11.062000000000001,,,2173520.0,1637402345.238889,0
9.0,-29.766000000000002,1.48231,33.93,2174434.5,1637402345.3166666,0
9.0,-52.854,,,2175773.5,1637402345.3944445,0
9.0,-81.12800000000001,,,2177526.0,1637402345.4722223,0
9.0,-88.228,1.486153,33.93,2179480.0,1637402345.55,0
9.0,-7.35,,,2181671.5,1637402345.6277778,0
9.0,36.248000000000005,,,2181326.6666666665,1637402345.7055554,0
9.0,34.436,1.484872,33.93,2177618.0,1637402345.7833333,0
9.0,39.989999999999995,,,2176317.5,1637402345.8611112,0
9.0,46.510000000000005,,,2175823.0,1637402345.9388888,0
9.0,39.76199999999999,1.486153,33.93,2175177.5,1637402346.0166667,0
9.0,20.630000000000003,,,2174509.5,1637402346.0944445,0
9.0,6.392,,,2174714.5,1637402346.1722221,0
9.0,-9.815,,,2175308.5,1637402346.25,0
9.0,-23.758,1.487433,33.93,2176238.5,1637402346.3277779,0
9.0,-46.910000000000004,,,2177496.5,1637402346.4055555,0
9.0,-74.88199999999999,,,2178828.5,1637402346.4833333,0
9.0,-97.58,1.48103,33.93,2180435.0,1637402346.5611112,0
9.0,-24.848000000000006,,,2182389.5,1637402346.6388888,0
9.0,33.318,,,2180420.5,1637402346.7166667,0
9.0,40.51199999999999,1.479749,33.93,2176165.0,1637402346.7944446,0
9.0,44.31,,,2173989.5,1637402346.8722222,0
9.0,52.827999999999996,,,2172454.5,1637402346.95,0
9.0,48.766000000000005,1.484872,33.93,2171186.0,1637402347.0277777,0
9.0,31.684000000000005,,,2170161.0,1637402347.1055555,0
9.0,15.622,,,2170362.0,1637402347.1833334,0
9.0,0.14399999999999996,1.486153,33.95,2170532.0,1637402347.261111,0
9.0,-15.01,,,2171481.5,1637402347.338889,0
9.0,-40.016,,,2172489.0,1637402347.4166667,0
9.0,-61.272000000000006,,,2173529.0,1637402347.4944444,0
9.0,-97.982,1.48103,33.95,2175190.5,1637402347.5722222,0
9.0,-81.7,,,2177064.0,1637402347.65,0
9.0,5.176,,,2177696.0,1637402347.7277777,0
9.0,37.544,1.486153,33.95,2173707.5,1637402347.8055556,0
9.0,37.458000000000006,,,2169555.0,1637402347.8833334,0
9.0,46.144,,,2167498.0,1637402347.961111,0
9.0,52.072,1.487433,33.95,2166023.5,1637402348.038889,0
9.0,38.158,,,2163957.0,1637402348.1166666,0
9.0,19.776,,,2163131.0,1637402348.1944444,0
9.0,1.3379999999999999,1.484872,33.91,2163008.0,1637402348.2722223,0
9.0,-16.328000000000003,,,2163486.0,1637402348.35,0
9.0,-40.902,,,2163970.0,1637402348.4277778,0
9.0,-67.054,1.489995,33.91,2164502.0,1637402348.5055556,0
9.0,-99.914,,,2165808.5,1637402348.5833333,0
9.0,-36.784000000000006,,,2167271.0,1637402348.661111,0
9.0,34.306,,,2164661.5,1637402348.738889,0
9.0,44.246,1.489995,33.91,2158780.0,1637402348.8166666,0
9.0,46.132000000000005,,,2155837.5,1637402348.8944445,0
9.0,56.114,,,2153947.0,1637402348.9722223,0
9.0,54.484,1.491276,33.91,2151690.5,1637402349.05,0
9.0,36.29,,,2150517.0,1637402349.1277778,0
9.0,19.232,,,2150241.0,1637402349.2055554,0
9.0,1.4300000000000002,1.484872,33.91,2150381.5,1637402349.2833333,0
9.0,-15.319999999999999,,,2150962.0,1637402349.3611112,0
9.0,-42.826,,,2151522.5,1637402349.4388888,0
9.0,-68.292,1.484872,33.91,2152821.0,1637402349.5166667,0
9.0,-107.822,,,2154200.5,1637402349.5944445,0
9.0,-72.578,,,2156015.0,1637402349.6722221,0
9.0,13.842500000000001,,,2156449.5,1637402349.75,0
9.0,43.658,1.489995,33.91,2149376.5,1637402349.8277779,0
9.0,44.426,,,2144433.0,1637402349.9055555,0
9.0,53.972,,,2141766.5,1637402349.9833333,0
9.0,61.262,1.489995,33.91,2139221.0,1637402350.0611112,0
9.0,49.339999999999996,,,2136583.0,1637402350.1388888,0
9.0,29.308,,,2135673.0,1637402350.2166667,0
9.0,12.618,1.487433,33.91,2135653.0,1637402350.2944446,0
9.0,-6.1339999999999995,,,2135864.5,1637402350.3722222,0
9.0,-28.048000000000002,,,2136387.5,1637402350.45,0
9.0,-52.814,1.488714,33.91,2137331.5,1637402350.5277777,0
9.0,-88.30800000000002,,,2138306.0,1637402350.6055555,0
9.0,-93.542,,,2139535.5,1637402350.6833334,0
9.0,-3.3,1.493837,33.91,2141099.0,1637402350.761111,0
9.0,41.344,,,2135228.0,1637402350.838889,0
9.0,39.836,,,2128685.0,1637402350.9166667,0
9.0,48.812,,,2126116.5,1637402350.9944444,0
9.0,57.766,1.493837,33.91,2123902.5,1637402351.0722222,0
9.0,44.891999999999996,,,2121052.0,1637402351.15,0
9.0,22.961999999999996,,,2119572.0,1637402351.2277777,0
9.0,1.658,1.495118,33.93,2119767.5,1637402351.3055556,0
9.0,-17.356,,,2120101.0,1637402351.3833334,0
9.0,-45.501999999999995,,,2120441.0,1637402351.461111,0
9.0,-75.758,1.492557,33.93,2120799.5,1637402351.538889,0
9.0,-110.80799999999999,,,2122159.0,1637402351.6166666,0
9.0,-43.46000000000001,,,2123856.0,1637402351.6944444,0
9.0,33.498,1.492557,33.93,2122619.5,1637402351.7722223,0
9.0,50.300000000000004,,,2112980.0,1637402351.85,0
9.0,55.414,,,2106920.5,1637402351.9277778,0
9.0,64.804,1.487433,33.93,2104077.0,1637402352.0055556,0
9.0,63.48,,,2101752.5,1637402352.0833333,0
9.0,42.61,,,2097701.5,1637402352.161111,0
9.0,24.844,,,2095611.0,1637402352.238889,0
9.0,4.537999999999999,1.488714,33.91,2095157.5,1637402352.3166666,0
9.0,-16.456,,,2095076.0,1637402352.3944445,0
9.0,-46.67,,,2095227.5,1637402352.4722223,0
9.0,-75.31599999999999,1.488714,33.91,2095720.5,1637402352.55,0
9.0,-118.04400000000001,,,2097329.5,1637402352.6277778,0
9.0,-67.698,,,2099081.5,1637402352.7055554,0
9.0,21.67,1.492557,33.91,2100271.5,1637402352.7833333,0
9.0,45.034000000000006,,,2091396.0,1637402352.8611112,0
9.0,49.824,,,2083136.0,1637402352.9388888,0
9.0,60.331999999999994,1.496399,33.91,2078846.5,1637402353.0166667,0
9.0,61.608000000000004,,,2075237.0,1637402353.0944445,0
9.0,40.514,,,2071122.0,1637402353.1722221,0
9.0,21.265,,,2069257.5,1637402353.25,0
9.0,1.832,1.495118,33.91,2068799.5,1637402353.3277779,0
9.0,-19.666000000000004,,,2068700.0,1637402353.4055555,0
9.0,-46.2,,,2068976.5,1637402353.4833333,0
9.0,-80.9,1.496399,33.91,2070004.5,1637402353.5611112,0
9.0,-97.032,,,2071815.5,1637402353.6388888,0
9.0,-10.038,,,2073266.5,1637402353.7166667,0
9.0,44.769999999999996,1.496399,33.91,2064913.5,1637402353.7944446,0
9.0,48.94200000000001,,,2056524.0,1637402353.8722222,0
9.0,57.44200000000001,,,2052834.5,1637402353.95,0
9.0,65.326,1.496399,33.91,2050001.0,1637402354.0277777,0
9.0,54.806,,,2046521.0,1637402354.1055555,0
9.0,33.54600000000001,,,2045569.0,1637402354.1833334,0
9.0,16.716,1.49768,33.93,2045984.5,1637402354.261111,0
9.0,0.09000000000000022,,,2046875.5,1637402354.338889,0
9.0,-19.202,,,2048057.0,1637402354.4166667,0
9.0,-44.556,,,2049904.0,1637402354.4944444,0
9.0,-72.01599999999999,1.492557,33.93,2052354.5,1637402354.5722222,0
9.0,-113.122,,,2055270.0,1637402354.65,0
9.0,-87.01000000000002,,,2058399.5,1637402354.7277777,0
9.0,13.081999999999999,1.492557,33.93,2053847.5,1637402354.8055556,0
9.0,47.966,,,2043296.0,1637402354.8833334,0
9.0,53.592000000000006,,,2038736.5,1637402354.961111,0
9.0,64.91999999999999,1.489995,33.93,2035871.0,1637402355.038889,0
9.0,66.99199999999999,,,2032764.5,1637402355.1166666,0
9.0,52.862,,,2030864.0,1637402355.1944444,0
9.0,32.55800000000001,1.495118,33.91,2031177.0,1637402355.2722223,0
9.0,16.174,,,2032159.0,1637402355.35,0
9.0,0.3660000000000004,,,2033267.5,1637402355.4277778,0
9.0,-18.07,1.492557,33.91,2034977.0,1637402355.5055556,0
9.0,-43.465999999999994,,,2037481.5,1637402355.5833333,0
9.0,-66.53200000000001,,,2040439.5,1637402355.661111,0
9.0,-102.478,,,2043510.0,1637402355.738889,0
9.0,-74.29400000000001,1.492557,33.91,2046145.0,1637402355.8166666,0
9.0,19.336000000000002,,,2038011.5,1637402355.8944445,0
9.0,48.333999999999996,,,2031297.0,1637402355.9722223,0
9.0,46.582,1.493837,33.91,2029627.0,1637402356.05,0
9.0,57.428,,,2028915.5,1637402356.1277778,0
9.0,59.388,,,2026622.0,1637402356.2055554,0
9.0,43.424,1.495118,33.91,2025798.5,1637402356.2833333,0
9.0,26.324,,,2027360.0,1637402356.3611112,0
9.0,10.532000000000002,,,2029351.0,1637402356.4388888,0
9.0,-5.956,1.493837,33.91,2031575.0,1637402356.5166667,0
9.0,-28.327999999999996,,,2034338.5,1637402356.5944445,0
9.0,-54.912,,,2037563.0,1637402356.6722221,0
9.0,-81.0825,,,2041549.0,1637402356.75,0
9.0,-103.40599999999999,1.49768,33.91,2045637.5,1637402356.8277779,0
9.0,-30.774000000000008,,,2044925.0,1637402356.9055555,0
9.0,34.682,,,2035650.5,1637402356.9833333,0
9.0,47.666000000000004,1.498961,33.91,2032031.5,1637402357.0611112,0
9.0,51.714,,,2030859.0,1637402357.1388888,0
9.0,57.19799999999999,,,2029326.5,1637402357.2166667,0
9.0,53.574,1.498961,33.91,2028825.5,1637402357.2944446,0
9.0,33.094,,,2030414.0,1637402357.3722222,0
9.0,16.794,,,2033832.5,1637402357.45,0
9.0,0.6539999999999997,1.492557,33.91,2038672.5,1637402357.5277777,0
9.0,-12.670000000000002,,,2041908.0,1637402357.6055555,0
9.0,-35.44199999999999,,,2045226.5,1637402357.6833334,0
9.0,-57.678,1.493837,33.91,2049233.0,1637402357.761111,0
9.0,-88.78399999999999,,,2053328.5,1637402357.838889,0
9.0,-64.14399999999999,,,2054096.5,1637402357.9166667,0
9.0,12.024,,,2045441.5,1637402357.9944444,0
9.0,32.376,1.49768,33.91,2042473.5,1637402358.0722222,0
9.0,31.246,,,2042280.0,1637402358.15,0
9.0,40.059999999999995,,,2041246.0,1637402358.2277777,0
9.0,42.830000000000005,1.500241,33.91,2040772.5,1637402358.3055556,0
9.0,27.014,,,2042456.0,1637402358.3833334,0
9.0,9.072000000000001,,,2044850.0,1637402358.461111,0
9.0,-7.325999999999999,1.493837,33.91,2047111.0,1637402358.538889,0
9.0,-25.142000000000003,,,2049866.0,1637402358.6166666,0
9.0,-44.634,,,2053198.0,1637402358.6944444,0
9.0,-74.42800000000001,1.49768,33.91,2057003.5,1637402358.7722223,0
9.0,-67.38,,,2056263.5,1637402358.85,0
9.0,4.836,,,2047844.0,1637402358.9277778,0
9.0,34.308,1.504084,33.91,2044978.0,1637402359.0055556,0
9.0,36.007999999999996,,,2044205.0,1637402359.0833333,0
9.0,40.525999999999996,,,2043640.0,1637402359.161111,0
9.0,42.942,,,2042876.5,1637402359.238889,0
9.0,29.994,1.501522,33.89,2043687.0,1637402359.3166666,0
9.0,12.336000000000002,,,2046085.5,1637402359.3944445,0
9.0,-4.676,,,2048370.0,1637402359.4722223,0
9.0,-20.578,1.501522,33.89,2051025.5,1637402359.55,0
9.0,-43.251999999999995,,,2054198.5,1637402359.6277778,0
9.0,-70.46799999999999,,,2057942.5,1637402359.7055554,0
9.0,-90.386,1.502803,33.89,2060976.0,1637402359.7833333,0
9.0,-22.470000000000002,,,2053833.5,1637402359.8611112,0
9.0,26.848000000000003,,,2047567.5,1637402359.9388888,0
9.0,34.628,1.502803,33.89,2045461.0,1637402360.0166667,0
9.0,39.872,,,2044608.0,1637402360.0944445,0
9.0,44.602,,,2042809.0,1637402360.1722221,0
9.0,38.0325,,,2041870.0,1637402360.25,0
9.0,22.446,1.505365,33.91,2042917.5,1637402360.3277779,0
9.0,4.547999999999999,,,2044599.5,1637402360.4055555,0
9.0,-12.424000000000001,,,2046552.5,1637402360.4833333,0
9.0,-32.714,1.500241,33.91,2048460.0,1637402360.5611112,0
9.0,-57.372,,,2050437.5,1637402360.6388888,0
9.0,-84.08599999999998,,,2053604.5,1637402360.7166667,0
9.0,-29.558,1.502803,33.91,2054705.5,1637402360.7944446,0
9.0,30.254,,,2046590.0,1637402360.8722222,0
9.0,39.788,,,2042726.5,1637402360.95,0
9.0,44.102,1.500241,33.91,2041759.5,1637402361.0277777,0
9.0,51.364,,,2040622.5,1637402361.1055555,0
9.0,47.58,,,2040197.5,1637402361.1833334,0
9.0,31.357999999999997,1.502803,33.87,2041762.0,1637402361.261111,0
9.0,19.704,,,2043839.5,1637402361.338889,0
9.0,6.544,,,2046503.5,1637402361.4166667,0
9.0,-10.27,,,2049360.5,1637402361.4944444,0
9.0,-28.829999999999995,1.500241,33.87,2053032.5,1637402361.5722222,0
9.0,-54.414,,,2057096.5,1637402361.65,0
9.0,-78.74,,,2061419.0,1637402361.7277777,0
9.0,-104.398,1.500241,33.87,2065587.5,1637402361.8055556,0
9.0,-37.946,,,2064166.5,1637402361.8833334,0
9.0,28.264,,,2058967.0,1637402361.961111,0
9.0,45.22,1.502803,33.87,2057670.5,1637402362.038889,0
9.0,51.376,,,2057068.0,1637402362.1166666,0
9.0,58.303999999999995,,,2057106.0,1637402362.1944444,0
9.0,56.6,1.505365,33.89,2057292.5,1637402362.2722223,0
9.0,39.85,,,2059326.0,1637402362.35,0
9.0,27.863999999999997,,,2062017.0,1637402362.4277778,0
9.0,16.056,1.507926,33.89,2064973.5,1637402362.5055556,0
9.0,5.2219999999999995,,,2068440.0,1637402362.5833333,0
9.0,-12.03,,,2072265.5,1637402362.661111,0
9.0,-28.413999999999998,,,2076204.5,1637402362.738889,0
9.0,-49.606,1.509207,33.89,2080735.0,1637402362.8166666,0
9.0,-73.00800000000001,,,2085227.0,1637402362.8944445,0
9.0,-96.782,,,2089829.5,1637402362.9722223,0
9.0,-32.438,1.509207,33.89,2091484.5,1637402363.05,0
9.0,31.3,,,2088753.0,1637402363.1277778,0
9.0,39.007999999999996,,,2089906.5,1637402363.2055554,0
9.0,42.444,1.504084,33.89,2091951.0,1637402363.2833333,0
9.0,53.06200000000001,,,2093219.0,1637402363.3611112,0
9.0,51.90599999999999,,,2094310.5,1637402363.4388888,0
9.0,34.488,1.504084,33.89,2096106.0,1637402363.5166667,0
9.0,21.026000000000003,,,2098704.5,1637402363.5944445,0
9.0,9.527999999999999,,,2102114.5,1637402363.6722221,0
9.0,-3.4975,,,2105420.0,1637402363.75,0
9.0,-17.272,1.500241,33.89,2109063.5,1637402363.8277779,0
9.0,-41.068,,,2112896.0,1637402363.9055555,0
9.0,-63.556,,,2116933.5,1637402363.9833333,0
9.0,-97.39399999999999,1.502803,33.89,2121049.0,1637402364.0611112,0
9.0,-70.578,,,2125201.0,1637402364.1388888,0
9.0,13.532,,,2125755.0,1637402364.2166667,0
9.0,43.904,1.49768,33.87,2124154.5,1637402364.2944446,0
9.0,48.04,,,2125220.0,1637402364.3722222,0
9.0,54.928,,,2126960.5,1637402364.45,0
9.0,59.58399999999999,1.498961,33.87,2128342.0,1637402364.5277777,0
9.0,47.60000000000001,,,2130316.5,1637402364.6055555,0
9.0,31.137999999999998,,,2132871.5,1637402364.6833334,0
9.0,16.942,1.507926,33.87,2135108.0,1637402364.761111,0
9.0,4.781999999999999,,,2137007.5,1637402364.838889,0
9.0,-11.99,,,2140042.0,1637402364.9166667,0
9.0,-30.566000000000003,,,2142972.0,1637402364.9944444,0
9.0,-51.944,1.511768,33.87,2146270.0,1637402365.0722222,0
9.0,-76.72999999999999,,,2149697.5,1637402365.15,0
9.0,-98.65200000000002,,,2152263.0,1637402365.2277777,0
9.0,-29.034,1.510488,33.89,2154781.0,1637402365.3055556,0
9.0,32.024,,,2156313.5,1637402365.3833334,0
9.0,36.129999999999995,,,2154325.5,1637402365.461111,0
9.0,37.370000000000005,1.509207,33.89,2154857.5,1637402365.538889,0
9.0,47.578,,,2155994.0,1637402365.6166666,0
9.0,50.086,,,2156811.0,1637402365.6944444,0
9.0,36.056,1.513049,33.89,2157489.5,1637402365.7722223,0
9.0,21.194000000000003,,,2159041.5,1637402365.85,0
9.0,2.3059999999999987,,,2160947.0,1637402365.9277778,0
9.0,-15.307999999999998,1.506645,33.89,2163375.5,1637402366.0055556,0
9.0,-39.804,,,2165552.0,1637402366.0833333,0
9.0,-63.94200000000001,,,2168172.5,1637402366.161111,0
9.0,-96.092,,,2170849.5,1637402366.238889,0
9.0,-54.9,1.505365,33.87,2173549.5,1637402366.3166666,0
9.0,24.464,,,2176188.0,1637402366.3944445,0
9.0,43.290000000000006,,,2174590.5,1637402366.4722223,0
9.0,41.4,1.502803,33.87,2173047.0,1637402366.55,0
9.0,51.31,,,2173258.5,1637402366.6277778,0
9.0,53.77,,,2174001.5,1637402366.7055554,0
9.0,38.678000000000004,1.506645,33.87,2174164.5,1637402366.7833333,0
9.0,21.418,,,2175059.0,1637402366.8611112,0
9.0,4.731999999999999,,,2176570.5,1637402366.9388888,0
9.0,-10.206,1.506645,33.87,2178487.5,1637402367.0166667,0
9.0,-29.803999999999995,,,2180417.5,1637402367.0944445,0
9.0,-55.483999999999995,,,2182208.5,1637402367.1722221,0
9.0,-84.06,,,2184615.0,1637402367.25,0
9.0,-107.074,1.506645,33.87,2187215.0,1637402367.3277779,0
9.0,-34.446,,,2189818.0,1637402367.4055555,0
9.0,32.53,,,2189629.0,1637402367.4833333,0
9.0,39.77,1.504084,33.87,2186887.0,1637402367.5611112,0
9.0,41.194,,,2185205.0,1637402367.6388888,0
9.0,51.194,,,2185339.0,1637402367.7166667,0
9.0,47.742000000000004,1.510488,33.87,2185455.0,1637402367.7944446,0
9.0,27.156,,,2184957.0,1637402367.8722222,0
9.0,5.6899999999999995,,,2184984.5,1637402367.95,0
9.0,-9.604000000000001,1.513049,33.87,2185913.5,1637402368.0277777,0
9.0,-25.892000000000003,,,2187305.5,1637402368.1055555,0
9.0,-46.940000000000005,,,2188633.5,1637402368.1833334,0
9.0,-84.31599999999999,1.511768,33.89,2190175.5,1637402368.261111,0
9.0,-52.001999999999995,,,2191882.5,1637402368.338889,0
9.0,26.944,,,2193972.5,1637402368.4166667,0
9.0,42.28,,,2192469.0,1637402368.4944444,0
9.0,37.286,1.51433,33.89,2189145.5,1637402368.5722222,0
9.0,53.220000000000006,,,2188236.5,1637402368.65,0
9.0,62.403999999999996,,,2188219.5,1637402368.7277777,0
9.0,44.48,1.515611,33.89,2187460.5,1637402368.8055556,0
9.0,18.808,,,2187386.5,1637402368.8833334,0
9.0,-6.286,,,2188459.0,1637402368.961111,0
9.0,-27.422000000000004,1.509207,33.89,2189579.0,1637402369.038889,0
9.0,-55.75600000000001,,,2190531.0,1637402369.1166666,0
9.0,-83.49199999999999,,,2191612.5,1637402369.1944444,0
9.0,-119.174,1.510488,33.87,2193032.0,1637402369.2722223,0
9.0,-55.852,,,2194849.5,1637402369.35,0
9.0,29.140000000000004,,,2196756.5,1637402369.4277778,0
9.0,49.198,1.509207,33.87,2195110.0,1637402369.5055556,0
9.0,52.455999999999996,,,2190501.0,1637402369.5833333,0
9.0,63.21999999999999,,,2188379.5,1637402369.661111,0
9.0,63.922000000000004,,,2187572.0,1637402369.738889,0
9.0,46.114,1.510488,33.87,2186191.5,1637402369.8166666,0
9.0,27.306,,,2185498.5,1637402369.8944445,0
9.0,10.398,,,2185820.0,1637402369.9722223,0
9.0,-8.39,1.509207,33.87,2186419.5,1637402370.05,0
9.0,-28.82,,,2187187.5,1637402370.1277778,0
9.0,-54.684000000000005,,,2188187.0,1637402370.2055554,0
9.0,-83.06000000000002,1.51433,33.87,2189345.0,1637402370.2833333,0
9.0,-110.41600000000001,,,2191236.0,1637402370.3611112,0
9.0,-35.168,,,2192773.0,1637402370.4388888,0
9.0,38.898,1.51433,33.87,2194123.0,1637402370.5166667,0
9.0,43.706,,,2191591.5,1637402370.5944445,0
9.0,45.672000000000004,,,2186967.0,1637402370.6722221,0
9.0,59.275,,,2184994.5,1637402370.75,0
9.0,61.034000000000006,1.51433,33.87,2183939.0,1637402370.8277779,0
9.0,41.914,,,2182071.5,1637402370.9055555,0
9.0,22.802,,,2181169.5,1637402370.9833333,0
9.0,5.51,1.513049,33.87,2181222.5,1637402371.0611112,0
9.0,-11.736,,,2181690.0,1637402371.1388888,0
9.0,-36.474000000000004,,,2182272.5,1637402371.2166667,0
9.0,-63.348,1.51433,33.84,2183021.0,1637402371.2944446,0
9.0,-101.97999999999999,,,2184404.5,1637402371.3722222,0
9.0,-86.76599999999999,,,2185865.0,1637402371.45,0
9.0,11.342,1.511768,33.84,2187428.0,1637402371.5277777,0
9.0,49.833999999999996,,,2185285.0,1637402371.6055555,0
9.0,50.306000000000004,,,2179722.5,1637402371.6833334,0
9.0,59.35,1.507926,33.84,2176916.5,1637402371.761111,0
9.0,63.959999999999994,,,2175731.0,1637402371.838889,0
9.0,51.902,,,2174673.0,1637402371.9166667,0
9.0,32.007999999999996,,,2172681.0,1637402371.9944444,0
9.0,16.144,1.507926,33.84,2172127.5,1637402372.0722222,0
9.0,-2.3619999999999997,,,2172349.5,1637402372.15,0
9.0,-22.977999999999998,,,2172766.5,1637402372.2277777,0
9.0,-51.854000000000006,1.506645,33.87,2173290.5,1637402372.3055556,0
9.0,-79.47800000000001,,,2174343.5,1637402372.3833334,0
9.0,-115.69000000000001,,,2175718.5,1637402372.461111,0
9.0,-48.974000000000004,1.506645,33.87,2177224.0,1637402372.538889,0
9.0,30.848000000000003,,,2178954.5,1637402372.6166666,0
9.0,43.525999999999996,,,2174979.5,1637402372.6944444,0
9.0,45.93599999999999,1.505365,33.87,2169725.5,1637402372.7722223,0
9.0,56.565999999999995,,,2167600.0,1637402372.85,0
9.0,56.036,,,2166110.5,1637402372.9277778,0
9.0,35.172000000000004,1.505365,33.87,2164076.5,1637402373.0055556,0
9.0,18.118,,,2163057.5,1637402373.0833333,0
9.0,-1.918,,,2163070.0,1637402373.161111,0
9.0,-20.48,,,2163110.0,1637402373.238889,0
9.0,-45.57000000000001,1.510488,33.87,2163690.0,1637402373.3166666,0
9.0,-75.262,,,2164514.5,1637402373.3944445,0
9.0,-95.594,,,2165757.0,1637402373.4722223,0
9.0,-14.844,1.510488,33.87,2167333.5,1637402373.55,0
9.0,40.428000000000004,,,2168720.5,1637402373.6277778,0
9.0,41.608000000000004,,,2164979.0,1637402373.7055554,0
9.0,48.928000000000004,1.516892,33.87,2160825.0,1637402373.7833333,0
9.0,57.63199999999999,,,2159134.0,1637402373.8611112,0
9.0,50.532000000000004,,,2157956.5,1637402373.9388888,0
9.0,33.07000000000001,1.515611,33.87,2156428.0,1637402374.0166667,0
9.0,20.782,,,2156210.5,1637402374.0944445,0
9.0,9.373999999999999,,,2156564.0,1637402374.1722221,0
9.0,-3.6125,,,2157398.0,1637402374.25,0
9.0,-20.644,1.515611,33.87,2158136.0,1637402374.3277779,0
9.0,-44.022,,,2159468.0,1637402374.4055555,0
9.0,-68.508,,,2160763.0,1637402374.4833333,0
9.0,-101.63000000000001,1.513049,33.87,2162149.5,1637402374.5611112,0
9.0,-100.524,,,2164068.0,1637402374.6388888,0
9.0,-4.828000000000001,,,2166351.5,1637402374.7166667,0
9.0,42.462,1.509207,33.87,2167688.0,1637402374.7944446,0
9.0,52.938,,,2162842.5,1637402374.8722222,0
9.0,63.081999999999994,,,2159387.0,1637402374.95,0
9.0,66.76200000000001,1.510488,33.87,2157727.0,1637402375.0277777,0
9.0,56.814,,,2156350.5,1637402375.1055555,0
9.0,40.186,,,2155159.0,1637402375.1833334,0
9.0,28.916000000000004,1.511768,33.87,2155119.5,1637402375.261111,0
9.0,18.856,,,2155883.0,1637402375.338889,0
9.0,6.9319999999999995,,,2156644.0,1637402375.4166667,0
9.0,-8.16,,,2158007.0,1637402375.4944444,0
9.0,-22.392,1.507926,33.87,2159540.5,1637402375.5722222,0
9.0,-39.936,,,2161478.0,1637402375.65,0
9.0,-61.28399999999999,,,2163662.0,1637402375.7277777,0
9.0,-92.11999999999999,1.510488,33.87,2165873.0,1637402375.8055556,0
9.0,-80.94800000000001,,,2167730.0,1637402375.8833334,0
9.0,7.208,,,2169473.5,1637402375.961111,0
9.0,39.70399999999999,1.513049,33.87,2171482.5,1637402376.038889,0
9.0,39.45399999999999,,,2168493.5,1637402376.1166666,0
9.0,48.230000000000004,,,2167069.5,1637402376.1944444,0
9.0,53.94599999999999,1.516892,33.84,2166880.5,1637402376.2722223,0
9.0,41.678000000000004,,,2167065.0,1637402376.35,0
9.0,28.080000000000002,,,2167076.0,1637402376.4277778,0
9.0,17.729999999999997,1.515611,33.84,2168122.5,1637402376.5055556,0
9.0,7.888000000000001,,,2169675.5,1637402376.5833333,0
9.0,-6.748,,,2171524.0,1637402376.661111,0
9.0,-21.093999999999998,,,2173574.5,1637402376.738889,0
