Unnamed: 0,ID,empatica_bvp,empatica_eda,empatica_temp,samsung_bvp,CL
486,10,0.5495544352,0.0483919509,0.6818181818,0.0836127777,1
487,10,0.6098207945,0.0756771836,0.6818181818,0.1034403279,1
488,10,0.5803101611,0.0615948153,0.6818181818,0.1158373428,1
489,10,0.0906477254,0.0545532876,0.6818181818,0.1357726066,1
490,10,0.4682324249,0.0536730967,0.6818181818,0.1412418444,1
491,10,0.8607499152,0.0510325238,0.6818181818,0.1545048313,1
492,10,0.6912537262,0.0519127147,0.6761363636,0.1587625039,1
493,10,0.5782858459,0.0510325238,0.6761363636,0.1597631892,1
494,10,0.6963311524,0.0519127147,0.6761363636,0.1830009132,1
495,10,0.6208519258,0.0510325238,0.6761363636,0.1881438838,1
496,10,0.6086311627,0.0519127147,0.6704545455,0.1741760689,1
497,10,0.6886304356,0.0545532876,0.6704545455,0.1730460705,1
498,10,0.5612178184,0.0527929057,0.6761363636,0.1788046288,1
499,10,0.5870014934,0.0545532876,0.6761363636,0.1778713001,1
500,10,0.6373653464,0.0545532876,0.6818181818,0.1764144661,1
501,10,0.5955341206,0.0545532876,0.6818181818,0.1747433417,1
502,10,0.6572091814,0.0554334786,0.6818181818,0.173488009,1
503,10,0.5893197503,0.0527929057,0.6761363636,0.1611765398,1
504,10,0.6224935622,0.0510325238,0.6761363636,0.1571851671,1
505,10,0.5788931405,0.0527929057,0.6818181818,0.1435183251,1
506,10,0.571547372,0.0527929057,0.6818181818,0.1393061253,1
507,10,0.6676136069,0.0510325238,0.6818181818,0.139796947,1
508,10,0.6872115659,0.0536730967,0.6704545455,0.1270298975,1
509,10,0.7093477765,0.0554334786,0.6704545455,0.1227244785,1
510,10,0.6114596579,0.0527929057,0.6704545455,0.1245942621,1
511,10,0.5148221779,0.0536730967,0.6704545455,0.1182397262,1
512,10,0.6114873882,0.0554334786,0.6704545455,0.1202629804,1
513,10,0.6013214437,0.0545532876,0.6704545455,0.1247414802,1
514,10,0.6498772781,0.0545532876,0.6704545455,0.1228827806,1
515,10,0.6635344732,0.0554334786,0.6704545455,0.126472856,1
516,10,0.5984707642,0.0527929057,0.6704545455,0.1261659148,1
517,10,0.6403491315,0.0545532876,0.6761363636,0.1494781005,1
518,10,0.6381528882,0.0536730967,0.6761363636,0.1522411398,1
519,10,0.6165537223,0.0677554649,0.6761363636,0.1491671804,1
520,10,0.5810561074,0.0580740515,0.6761363636,0.1438971701,1
521,10,0.631553066,0.0607146244,0.6704545455,0.1473238278,1
522,10,0.5950183362,0.0598344334,0.6704545455,0.1403573989,1
523,10,0.6477198573,0.0589542424,0.6704545455,0.1460017069,1
524,10,0.6377729825,0.0571938605,0.6704545455,0.1510915313,1
525,10,0.6558559406,0.0598344334,0.6704545455,0.1433648545,1
526,10,0.6577194198,0.0580740515,0.6704545455,0.1354889702,1
527,10,0.614282607,0.0589542424,0.6704545455,0.1223891168,1
528,10,0.5849549939,0.0571938605,0.6647727273,0.1166388004,1
529,10,0.5833604991,0.0580740515,0.6647727273,0.1068621541,1
530,10,0.6436878651,0.0563136696,0.6647727273,0.1051461253,1
531,10,0.5679923418,0.0563136696,0.6647727273,0.1022637199,1
532,10,0.5231033829,0.0571938605,0.6704545455,0.0908665377,1
533,10,0.6815092829,0.0571938605,0.6704545455,0.0887489275,1
534,10,0.6593832405,0.0580740515,0.6704545455,0.0907770132,1
535,10,0.6743271235,0.0563136696,0.6647727273,0.0743775417,1
536,10,0.6590782067,0.0554334786,0.6647727273,0.0766457805,1
537,10,0.5824176674,0.0571938605,0.6647727273,0.0688116742,1
538,10,0.5877807161,0.0580740515,0.6704545455,0.0901776252,1
539,10,0.6327510169,0.066875274,0.6704545455,0.0633350471,1
540,10,0.5346466017,0.0651148921,0.6647727273,0.0557265995,1
541,10,0.5910307126,0.0624750063,0.6647727273,0.0651431582,1
542,10,0.647459192,0.0624750063,0.6647727273,0.0580903311,1
543,10,0.6259404442,0.0651148921,0.6647727273,0.0542882388,1
544,10,0.5783302145,0.0633551972,0.6647727273,0.0530894629,1
545,10,0.6635788417,0.0642347011,0.6647727273,0.0524343707,1
546,10,0.6618179648,0.0642347011,0.6647727273,0.0569097442,1
547,10,0.5852600277,0.0615948153,0.6647727273,0.0551061803,1
548,10,0.6693772569,0.0651148921,0.6647727273,0.0600280396,1
549,10,0.5686079554,0.0651148921,0.6647727273,0.0679925959,1
550,10,0.5386758208,0.0633551972,0.6647727273,0.0676023827,1
551,10,0.6459562073,0.0607146244,0.6647727273,0.073151482,1
552,10,0.5977109527,0.0721564198,0.6647727273,0.0783905139,1
553,10,0.659910117,0.0624750063,0.6647727273,0.0865596977,1
554,10,0.5970731548,0.0642347011,0.6647727273,0.0946998925,1
555,10,0.5882382668,0.0642347011,0.65625,0.0836036832,1
556,10,0.7220704588,0.0633551972,0.65625,0.0818816861,1
557,10,0.600547767,0.0633551972,0.65625,0.0838120053,1
558,10,0.5755849103,0.0624750063,0.65625,0.0791754877,1
559,10,0.6755805351,0.0730366107,0.65625,0.0799365882,1
560,10,0.5587109952,0.0695158469,0.65625,0.0765320985,1
561,10,0.6736976447,0.0695158469,0.65625,0.0757891871,1
562,10,0.6471569313,0.0703960378,0.65625,0.0791504776,1
563,10,0.5755544069,0.0721564198,0.6647727273,0.078006269,1
564,10,0.6593721483,0.0712762288,0.6647727273,0.0778857661,1
565,10,0.6544943806,0.0686356559,0.6647727273,0.0857104936,1
566,10,0.5791343945,0.0703960378,0.6647727273,0.0945845053,1
567,10,0.6587620807,0.0712762288,0.65625,0.0891345934,1
568,10,0.6568375948,0.0721564198,0.65625,0.0930475256,1
569,10,0.6746792989,0.0739168017,0.65625,0.0903748633,1
570,10,0.5639353923,0.0774375655,0.65625,0.0952901859,1
571,10,0.5121267883,0.0897595519,0.65625,0.0869285955,1
572,10,0.6619566165,0.0853585971,0.65625,0.0849579192,1
573,10,0.6280313122,0.0818378332,0.65625,0.0878633452,1
574,10,0.6885315303,0.0800781384,0.65625,0.0770945399,1
575,10,0.6825242135,0.0800781384,0.65625,0.0810597657,1
576,10,0.5336455362,0.0765573746,0.6647727273,0.0714661474,1
577,10,0.6776436728,0.0791979475,0.6647727273,0.0751647891,1
578,10,0.6707360438,0.0747969926,0.6505681818,0.0907750237,1
579,10,0.652761234,0.0765573746,0.6505681818,0.0926286077,1
580,10,0.5896247841,0.0774375655,0.6505681818,0.0922210579,1
581,10,0.6615739377,0.0774375655,0.65625,0.1160894324,1
582,10,0.5432901503,0.0774375655,0.65625,0.0973964279,1
583,10,0.6736615952,0.0783177565,0.6505681818,0.0952660285,1
584,10,0.6627497044,0.0800781384,0.6505681818,0.0982959362,1
585,10,0.5150883892,0.0800781384,0.6505681818,0.0889021139,1
586,10,0.5367929304,0.0818378332,0.65625,0.0826899646,1
587,10,0.6733454693,0.0827180242,0.65625,0.082700196,1
588,10,0.6207271393,0.0827180242,0.65625,0.0833243098,1
589,10,0.5477325516,0.0818378332,0.6505681818,0.087041709,1
590,10,0.6612661309,0.0809576423,0.6505681818,0.0871300968,1
591,10,0.5843116499,0.0800781384,0.6505681818,0.0810054826,1
592,10,0.5988063014,0.0791979475,0.6505681818,0.087577151,1
593,10,0.6409841564,0.0791979475,0.6505681818,0.0878789765,1
594,10,0.5825729573,0.0774375655,0.6505681818,0.0826984908,1
595,10,0.6413696082,0.0756771836,0.6505681818,0.0855070029,1
596,10,0.6393009245,0.0791979475,0.6505681818,0.0911234589,1
597,10,0.5956699993,0.0783177565,0.6505681818,0.0890675211,1
598,10,0.644078863,0.0774375655,0.6477272727,0.0932763105,1
599,10,0.5924588254,0.0774375655,0.6477272727,0.0855016031,1
600,10,0.6891711773,0.0774375655,0.6477272727,0.0860666023,1
601,10,0.6050095796,0.0747969926,0.6477272727,0.091886833,1
602,10,0.5387617849,0.0765573746,0.6477272727,0.0875055313,1
603,10,0.6669231213,0.0774375655,0.6477272727,0.0886758868,1
604,10,0.6955380646,0.0765573746,0.6477272727,0.0862834506,1
605,10,0.6556285517,0.0765573746,0.6477272727,0.0899701557,1
606,10,0.5725567566,0.0765573746,0.6420454545,0.0855004662,1
607,10,0.6639171519,0.0739168017,0.6420454545,0.0930654305,1
608,10,0.6042969097,0.0765573746,0.6420454545,0.0869712263,1
609,10,0.6703672302,0.0765573746,0.6477272727,0.0786858027,1
610,10,0.5742982223,0.0739168017,0.6477272727,0.0762873982,1
611,10,0.6552920906,0.0747969926,0.6477272727,0.0762214626,1
612,10,0.5336788126,0.0747969926,0.6477272727,0.0859864565,1
613,10,0.6557172888,0.0774375655,0.6477272727,0.090392484,1
614,10,0.5832551238,0.0774375655,0.6477272727,0.0795841742,1
615,10,0.6507646492,0.0747969926,0.6477272727,0.0856925887,1
616,10,0.6267779006,0.0747969926,0.6477272727,0.0931418816,1
617,10,0.5380518881,0.0765573746,0.6477272727,0.0868839754,1
618,10,0.6670368158,0.0756771836,0.6420454545,0.0941803661,1
619,10,0.5622632525,0.0774375655,0.6477272727,0.0938046473,1
620,10,0.6386298501,0.0756771836,0.6420454545,0.1088424934,1
621,10,0.5612316836,0.0756771836,0.6420454545,0.1222251306,1
622,10,0.6612892392,0.0765573746,0.6363636364,0.1098974617,1
623,10,0.6813179435,0.0747969926,0.6363636364,0.0970326458,1
624,10,0.5895249548,0.0765573746,0.6363636364,0.0988788404,1
625,10,0.5927250367,0.0774375655,0.6363636364,0.0933376987,1
626,10,0.6252776889,0.0747969926,0.6420454545,0.0932390796,1
627,10,0.5549812638,0.0783177565,0.6420454545,0.0541853567,1
628,10,0.6277235054,0.0774375655,0.6363636364,0.0535998947,1
629,10,0.6928509941,0.0791979475,0.6420454545,0.0404903784,1
630,10,0.5051470604,0.0765573746,0.6420454545,0.0295942493,1
631,10,0.5172846325,0.0800781384,0.6363636364,0.0164446601,1
632,10,0.6239494054,0.0774375655,0.6363636364,0.0248792911,1
633,10,0.6148704903,0.0783177565,0.6420454545,0.0221773558,1
634,10,0.6833588969,0.0765573746,0.6420454545,0.0306165341,1
635,10,0.6317388593,0.0774375655,0.6420454545,0.0336515575,1
636,10,0.6966888739,0.0800781384,0.6306818182,0.0372032653,1
637,10,0.6781261808,0.0791979475,0.6306818182,0.0446207272,1
638,10,0.566084494,0.0800781384,0.6363636364,0.047428671,1
639,10,0.6669536247,0.0791979475,0.6363636364,0.0569535118,1
640,10,0.6440955012,0.0791979475,0.6306818182,0.0565550566,1
641,10,0.6549158819,0.0774375655,0.6363636364,0.056425175,1
642,10,0.6642831925,0.0800781384,0.6363636364,0.0600860174,1
643,10,0.5836100722,0.0809576423,0.6363636364,0.0595369337,1
644,10,0.5989255419,0.0774375655,0.625,0.070622059,1
645,10,0.537647025,0.0783177565,0.625,0.0623750032,1
646,10,0.6382249871,0.0809576423,0.625,0.074315585,1
647,10,0.5826478292,0.0783177565,0.6363636364,0.074516802,1
648,10,0.5592045954,0.0800781384,0.6363636364,0.0619845057,1
649,10,0.6787750709,0.0818378332,0.6363636364,0.0668188299,1
650,10,0.6312887038,0.0897595519,0.6363636364,0.0707664351,1
651,10,0.7248268552,0.0800781384,0.6306818182,0.0695048498,1
652,10,0.6244873741,0.0800781384,0.6306818182,0.0823801814,1
653,10,0.6846539041,0.0827180242,0.6306818182,0.0832532586,1
654,10,0.6434992987,0.0818378332,0.6306818182,0.0883052837,1
655,10,0.6614408321,0.0827180242,0.6306818182,0.0726041035,1
656,10,0.6404850102,0.0827180242,0.6306818182,0.0636766613,1
657,10,0.6557561113,0.0800781384,0.6306818182,0.0690842267,1
658,10,0.5581203389,0.0800781384,0.6306818182,0.0580778261,1
659,10,0.6390624435,0.0827180242,0.6306818182,0.0594039258,1
660,10,0.7097443204,0.0844784061,0.625,0.0521885335,1
661,10,0.6705511745,0.0818378332,0.625,0.0594545143,1
662,10,0.5663784357,0.0818378332,0.625,0.0509925996,1
663,10,0.6128544943,0.0818378332,0.6306818182,0.0499680412,1
664,10,0.6206938628,0.0835982152,0.6306818182,0.0632935532,1
665,10,0.5240841132,0.0835982152,0.6306818182,0.0562992722,1
666,10,0.6909764228,0.0844784061,0.6306818182,0.0596196373,1
667,10,0.532508592,0.086238788,0.6306818182,0.0661219597,1
668,10,0.6902277034,0.086238788,0.6306818182,0.0649939507,1
669,10,0.6696129648,0.086238788,0.6306818182,0.073362362,1
670,10,0.5982905169,0.087118979,0.6306818182,0.0810830705,1
671,10,0.6361757146,0.08799917,0.6306818182,0.0831543553,1
672,10,0.5876309723,0.0888793609,0.6306818182,0.095555349,1
673,10,0.6871607273,0.086238788,0.625,0.0882313905,1
674,10,0.5950432935,0.086238788,0.625,0.0930958404,1
675,10,0.5824093482,0.08799917,0.625,0.0826734808,1
676,10,0.6750203821,0.08799917,0.625,0.0833368148,1
677,10,0.6406375271,0.0888793609,0.625,0.0593789158,1
678,10,0.6350165861,0.086238788,0.625,0.0563060932,1
679,10,0.7358773977,0.086238788,0.625,0.0464868162,1
680,10,0.6792769901,0.086238788,0.625,0.0532184918,1
681,10,0.5758400295,0.086238788,0.625,0.0496767312,1
682,10,0.6778322391,0.0844784061,0.625,0.0551675686,1
683,10,0.5781388751,0.0835982152,0.625,0.0654961406,1
684,10,0.6038615433,0.0853585971,0.625,0.0735172536,1
685,10,0.5127008065,0.0853585971,0.625,0.082218753,1
686,10,0.6208436067,0.086238788,0.6193181818,0.0969667102,1
687,10,0.5205568133,0.0844784061,0.6193181818,0.0931481341,1
688,10,0.6746072,0.086238788,0.6193181818,0.0937540588,1
689,10,0.6118589749,0.0827180242,0.6193181818,0.0910450183,1
690,10,0.5853127154,0.0835982152,0.625,0.093623893,1
691,10,0.5286707123,0.0844784061,0.625,0.0812317096,1
692,10,0.6316944908,0.0818378332,0.6136363636,0.0800025237,1
693,10,0.5356310289,0.0827180242,0.6136363636,0.0660787605,1
694,10,0.6768367197,0.0818378332,0.6136363636,0.0576824972,1
695,10,0.5520806697,0.0835982152,0.6136363636,0.0552107677,1
696,10,0.7053915802,0.0827180242,0.6193181818,0.0487399921,1
697,10,0.6560971946,0.0818378332,0.6193181818,0.0558138504,1
698,10,0.7271478851,0.0853585971,0.6193181818,0.0540566119,1
699,10,0.5400651111,0.0827180242,0.6136363636,0.0578635356,1
700,10,0.679509925,0.0827180242,0.6136363636,0.0588576841,1
701,10,0.575321472,0.0844784061,0.6136363636,0.0706010279,1
702,10,0.5275975479,0.0827180242,0.6136363636,0.0730471789,1
703,10,0.6770252861,0.0853585971,0.6136363636,0.0647424294,1
704,10,0.6480942169,0.0853585971,0.6136363636,0.0668756709,1
705,10,0.4942102123,0.0835982152,0.6136363636,0.0657735246,1
706,10,0.6403935001,0.0950406977,0.6136363636,0.0694735873,1
707,10,0.652037472,0.0844784061,0.6136363636,0.0696608783,1
708,10,0.7086267875,0.087118979,0.6051136364,0.0620242944,1
709,10,0.5265687521,0.08799917,0.6051136364,0.0660693818,1
710,10,0.7463871986,0.0853585971,0.6051136364,0.0655600867,1
711,10,0.5972450829,0.087118979,0.6051136364,0.071141017,1
712,10,0.4436522469,0.087118979,0.6051136364,0.0662589464,1
713,10,0.7402698844,0.08799917,0.6051136364,0.0678979557,1
714,10,0.4607590969,0.086238788,0.6051136364,0.0685311641,1
715,10,0.6504457502,0.087118979,0.6051136364,0.075372827,1
716,10,0.6624585358,0.086238788,0.6136363636,0.0792007819,1
717,10,0.5394458004,0.086238788,0.6136363636,0.0740714531,1
718,10,0.6589145976,0.08799917,0.6136363636,0.0770757824,1
719,10,0.6201115256,0.0897595519,0.6051136364,0.0841880083,1
720,10,0.5158897962,0.0897595519,0.6051136364,0.0777362744,1
721,10,0.6953273139,0.08799917,0.6051136364,0.0797089401,1
722,10,0.6266669792,0.08799917,0.6051136364,0.0852443977,1
723,10,0.6752838204,0.0906397429,0.6051136364,0.0827178167,1
724,10,0.5817160896,0.0888793609,0.6051136364,0.0828113201,1
725,10,0.6534461736,0.0897595519,0.6136363636,0.0908347068,1
726,10,0.6221192026,0.0906397429,0.6136363636,0.0945606321,1
727,10,0.6579412625,0.0888793609,0.6136363636,0.0972401153,1
728,10,0.6699540481,0.0897595519,0.6051136364,0.0897024347,1
729,10,0.6549824347,0.0897595519,0.6051136364,0.0916674269,1
730,10,0.5202822828,0.0906397429,0.6051136364,0.085453004,1
731,10,0.6180955295,0.0906397429,0.6136363636,0.1015242189,1
732,10,0.687141316,0.0906397429,0.6022727273,0.079074595,1
733,10,0.5746152722,0.0915199338,0.6051136364,0.0663322713,1
734,10,0.6341902219,0.0915199338,0.6051136364,0.0633577835,1
735,10,0.6932946796,0.0915199338,0.6051136364,0.0790873842,1
736,10,0.6427810828,0.0941605067,0.6022727273,0.0767279157,1
737,10,0.5448153193,0.0915199338,0.6051136364,0.0692661178,1
738,10,0.7138373194,0.0915199338,0.6051136364,0.0688901148,1
739,10,0.6608196724,0.0950406977,0.6051136364,0.0713641178,1
740,10,0.5696903629,0.0959208886,0.6022727273,0.0827431109,1
741,10,0.6795016059,0.0941605067,0.6022727273,0.0874543745,1
742,10,0.6724886016,0.0932803157,0.6022727273,0.1012604769,1
743,10,0.6149287241,0.0941605067,0.6022727273,0.1089533333,1
744,10,0.5257784373,0.0941605067,0.6022727273,0.1019539366,1
745,10,0.7178193969,0.0950406977,0.6022727273,0.1057031668,1
746,10,0.6823827888,0.0941605067,0.5965909091,0.129408692,1
747,10,0.6445031372,0.1012013473,0.5965909091,0.1160126971,1
748,10,0.5709511696,0.1029617292,0.5965909091,0.1152444915,1
749,10,0.6899115775,0.1047221111,0.5965909091,0.1023478445,1
750,10,0.6540534681,0.1047221111,0.6051136364,0.1018584438,1
751,10,0.7084437672,0.1047221111,0.6051136364,0.1091136248,1
752,10,0.658543011,0.1152837156,0.6022727273,0.0961482003,1
753,10,0.598534544,0.1152837156,0.6022727273,0.1000247542,1
754,10,0.6720255049,0.1188044794,0.5965909091,0.0969581841,1
755,10,0.6221691172,0.1196846704,0.5965909091,0.1058850579,1
756,10,0.6843165178,0.1214450523,0.5965909091,0.091519072,1
757,10,0.6909791958,0.1293660839,0.6022727273,0.115536654,1
758,10,0.644561371,0.1188044794,0.6022727273,0.1116936363,1
759,10,0.5494046914,0.1188044794,0.5965909091,0.1031174712,1
760,10,0.5309529197,0.1152837156,0.5965909091,0.090743477,1
761,10,0.6853388436,0.1161639065,0.5965909091,0.0815827026,1
762,10,0.5807399815,0.1170440975,0.5965909091,0.0779957534,1
763,10,0.6449939643,0.1144035246,0.5965909091,0.0768091982,1
764,10,0.5680838519,0.1152837156,0.5965909091,0.0777698106,1
765,10,0.6942652417,0.1188044794,0.5965909091,0.0741098207,1
766,10,0.6493420825,0.1170440975,0.5965909091,0.0804683355,1
767,10,0.6783369314,0.1161639065,0.5965909091,0.068678098,1
768,10,0.6012826212,0.1161639065,0.5965909091,0.0683751356,1
769,10,0.598219342,0.1144035246,0.5965909091,0.0652977657,1
770,10,0.7034328938,0.1135233336,0.5965909091,0.0678158205,1
771,10,0.6307793894,0.1144035246,0.5965909091,0.0643516478,1
772,10,0.4919446431,0.1152837156,0.5965909091,0.058308032,1
773,10,0.6968524829,0.1152837156,0.5965909091,0.0700570598,1
774,10,0.6338879611,0.1144035246,0.5965909091,0.0652909448,1
775,10,0.5253652551,0.1196846704,0.5965909091,0.0652397879,1
776,10,0.4778188052,0.1249658162,0.5965909091,0.0687912115,1
777,10,0.7214354339,0.1240856252,0.5965909091,0.0698530007,1
778,10,0.6507202806,0.1240856252,0.5965909091,0.0757192727,1
779,10,0.4914898654,0.1223252433,0.5965909091,0.0657161152,1
780,10,0.687623824,0.1267261981,0.5965909091,0.0755260134,1
781,10,0.6925515064,0.1249658162,0.5909090909,0.0656641057,1
782,10,0.7002189468,0.12848658,0.5909090909,0.0643166906,1
783,10,0.6633958214,0.12848658,0.5909090909,0.0711830794,1
784,10,0.5621356929,0.1249658162,0.5909090909,0.0674560172,1
785,10,0.7257059071,0.1249658162,0.5909090909,0.067822073,1
786,10,0.64271453,0.127606389,0.5909090909,0.0746103054,1
787,10,0.5080504276,0.127606389,0.5909090909,0.0704492625,1
788,10,0.7036408714,0.127606389,0.5909090909,0.0705043982,1
789,10,0.5948269968,0.12848658,0.5909090909,0.064990256,1
790,10,0.6844376074,0.127606389,0.5909090909,0.0558667125,1
791,10,0.6522648609,0.1249658162,0.5965909091,0.0642842912,1
792,10,0.5306867084,0.1249658162,0.5965909091,0.0736553772,1
793,10,0.6671061416,0.1267261981,0.5965909091,0.0728024785,1
794,10,0.5558270393,0.127606389,0.5909090909,0.0634475922,1
795,10,0.6905632406,0.1249658162,0.5909090909,0.0599413572,1
796,10,0.7157451671,0.1249658162,0.5909090909,0.0633327734,1
797,10,0.6669258944,0.1267261981,0.5852272727,0.0570177421,1
798,10,0.7325358911,0.12848658,0.5909090909,0.0482281392,1
799,10,0.6737198289,0.127606389,0.5909090909,0.0541924618,1
800,10,0.5686939195,0.12848658,0.5909090909,0.0431508198,1
801,10,0.658948798,0.1258460071,0.5965909091,0.0453011136,1
802,10,0.5559102304,0.127606389,0.5852272727,0.0749013312,1
803,10,0.6311408079,0.1337670387,0.5852272727,0.0831515133,1
804,10,0.5868933451,0.1346472296,0.5852272727,0.0900355228,1
805,10,0.5799607588,0.1381679935,0.5909090909,0.096342028,1
806,10,0.5897560407,0.1364076116,0.5909090909,0.0898462423,1
807,10,0.6073028791,0.1381679935,0.5909090909,0.1016927524,1
808,10,0.6351580109,0.1381679935,0.5909090909,0.1085440783,1
809,10,0.4803394936,0.1416887573,0.5852272727,0.0973043456,1
810,10,0.694853125,0.1416887573,0.5852272727,0.104611536,1
811,10,0.4721091272,0.1390481844,0.5852272727,0.0965526238,1
812,10,0.6246287988,0.1399283754,0.5852272727,0.0974180275,1
813,10,0.5393773986,0.1399283754,0.5852272727,0.0834863066,1
814,10,0.7893941909,0.1416887573,0.5852272727,0.0815684924,1
815,10,0.5173290011,0.1425689483,0.5852272727,0.0863135763,1
816,10,0.628655245,0.1443293302,0.5852272727,0.0646293159,1
817,10,0.5401455291,0.1452088341,0.5852272727,0.0533750887,1
818,10,0.7193417929,0.1425689483,0.5852272727,0.049874822,1
819,10,0.591141634,0.1434491393,0.5852272727,0.0389323675,1
820,10,0.6974875078,0.1452088341,0.5852272727,0.0390011451,1
821,10,0.4605344811,0.1425689483,0.5852272727,0.0224223403,1
822,10,0.7129499483,0.1416887573,0.5909090909,0.0264932904,1
823,10,0.67822601,0.1434491393,0.5909090909,0.0339411622,1
824,10,0.5401926707,0.146969216,0.5909090909,0.0208350563,1
825,10,0.6771278884,0.1443293302,0.5909090909,0.0233752791,1
826,10,0.5576211927,0.1416887573,0.5852272727,0.0451541797,1
827,10,0.6501629007,0.1443293302,0.5852272727,0.0414760007,1
828,10,0.5836960363,0.1443293302,0.5852272727,0.0446639264,1
829,10,0.6768034433,0.1434491393,0.5852272727,0.0612353418,1
830,10,0.5944470911,0.1443293302,0.5852272727,0.0607908454,1
831,10,0.6979783349,0.146089025,0.5852272727,0.0480442587,1
832,10,0.6645937723,0.147849407,0.5852272727,0.0509761157,1
833,10,0.7337255229,0.147849407,0.5852272727,0.0401038598,1
834,10,0.4831874001,0.1452088341,0.5852272727,0.0385194179,1
835,10,0.6061382046,0.1452088341,0.5795454545,0.0547711028,1
836,10,0.6883864085,0.146969216,0.5795454545,0.0564913947,1
837,10,0.5980603551,0.1443293302,0.5795454545,0.0699087049,1
838,10,0.4931287288,0.1434491393,0.5795454545,0.0667449367,1
839,10,0.6803529275,0.1434491393,0.5795454545,0.0691902351,1
840,10,0.6611247062,0.1443293302,0.5795454545,0.0779789853,1
841,10,0.6525754407,0.1452088341,0.5795454545,0.09314245,1
842,10,0.5401122527,0.1425689483,0.5795454545,0.0966842106,1
843,10,0.4777587224,0.1452088341,0.5795454545,0.0997837485,1
844,10,0.7111752062,0.1443293302,0.5795454545,0.0992775797,1
845,10,0.4956993318,0.1408085664,0.5795454545,0.1014315682,1
846,10,0.6979201012,0.1425689483,0.5795454545,0.0967524198,1
847,10,0.6387241333,0.1434491393,0.5795454545,0.1020397665,1
848,10,0.6560084575,0.1425689483,0.5738636364,0.0975115309,1
849,10,0.4794964911,0.1408085664,0.5852272727,0.0891510773,1
850,10,0.6374818138,0.1425689483,0.5852272727,0.0982251692,1
851,10,0.4879071048,0.1434491393,0.5852272727,0.096178326,1
852,10,0.5655631635,0.1416887573,0.5795454545,0.1014139475,1
853,10,0.49234396,0.1443293302,0.5795454545,0.0871624961,1
854,10,0.7191476805,0.1452088341,0.5738636364,0.0852944177,1
855,10,0.7379654927,0.1504899798,0.5738636364,0.0765863816,1
856,10,0.6244901471,0.147849407,0.5738636364,0.0757172833,1
857,10,0.5840177083,0.1496097889,0.5738636364,0.0687011185,1
858,10,0.7003437334,0.1496097889,0.5738636364,0.0675361629,1
859,10,0.6379994473,0.1513701708,0.5738636364,0.0732557852,1
860,10,0.725694815,0.1513701708,0.5795454545,0.0674759115,1
861,10,0.497798519,0.1496097889,0.5795454545,0.0682478118,1
862,10,0.6841741691,0.1575315075,0.5738636364,0.0816588695,1
863,10,0.6319440639,0.1575315075,0.5738636364,0.0893375157,1
864,10,0.5859311021,0.1610515843,0.5738636364,0.0970209934,1
865,10,0.5015504347,0.1610515843,0.5738636364,0.103373824,1
866,10,0.5027428395,0.1531305527,0.5738636364,0.0920670189,1
867,10,0.7201182425,0.1540107437,0.5738636364,0.0887145387,1
868,10,0.649946604,0.1540107437,0.5738636364,0.0894335769,1
869,10,0.4905590498,0.1548909347,0.5738636364,0.0781290455,1
870,10,0.6690278545,0.1540107437,0.5738636364,0.0702375299,1
871,10,0.4880485296,0.1540107437,0.5738636364,0.0594550827,1
872,10,0.6409314688,0.1566513166,0.5738636364,0.0610224724,1
873,10,0.5207481526,0.1566513166,0.5738636364,0.05341573,1
874,10,0.6201595912,0.1548909347,0.5681818182,0.0623943291,1
875,10,0.4754922293,0.1584116985,0.5681818182,0.0560213199,1
876,10,0.7170817697,0.1601720804,0.5738636364,0.057565689,1
877,10,0.7082302436,0.1575315075,0.5738636364,0.0711731322,1
878,10,0.6755999464,0.1610515843,0.5738636364,0.0840166328,1
879,10,0.6036480196,0.1592918895,0.5738636364,0.0866563273,1
880,10,0.7340416489,0.1592918895,0.5681818182,0.072101061,1
881,10,0.6033762623,0.1628119662,0.5681818182,0.0656240328,1
882,10,0.5767468118,0.1610515843,0.5681818182,0.066270883,1
883,10,0.6668870719,0.1645723481,0.5681818182,0.0513856549,1
884,10,0.6847981019,0.1645723481,0.5681818182,0.0404588317,1
885,10,0.676614877,0.1619317752,0.5681818182,0.0413023516,1
886,10,0.6738002469,0.1654525391,0.5738636364,0.0608434233,1
887,10,0.6285581887,0.16633273,0.5738636364,0.04464119,1
888,10,0.6796901723,0.1636921572,0.5738636364,0.0431820824,1
889,10,0.6564299587,0.168093112,0.5738636364,0.0304613582,1
890,10,0.5373724946,0.167212921,0.5738636364,0.0381084577,1
891,10,0.7162054908,0.1645723481,0.5738636364,0.0391762152,1
892,10,0.6128489482,0.1645723481,0.5738636364,0.0442572292,1
893,10,0.6843904658,0.168093112,0.5681818182,0.0254886263,1
894,10,0.5657304696,0.1707336849,0.5738636364,0.0273382313,1
895,10,0.4674060606,0.1707336849,0.5738636364,0.014124696,1
896,10,0.6987963801,0.1698534939,0.5738636364,0.0161192455,1
897,10,0.6207132741,0.167212921,0.5738636364,0.0249230586,1
898,10,0.45088617,0.1689733029,0.5795454545,0.0173617891,1
899,10,0.7198243009,0.1689733029,0.5738636364,0.0212590899,1
900,10,0.6658139075,0.16633273,0.5738636364,0.0296931526,1
901,10,0.5084747019,0.1689733029,0.5681818182,0.0440642542,1
902,10,0.6483151357,0.167212921,0.5681818182,0.0506589431,1
903,10,0.6471181088,0.1707336849,0.5681818182,0.0556757268,1
904,10,0.7211830878,0.1707336849,0.5681818182,0.0539722031,1
905,10,0.7191033119,0.1707336849,0.5738636364,0.0558317553,1
906,10,0.5097835742,0.1689733029,0.5738636364,0.0546128008,1
907,10,0.6110991634,0.1698534939,0.5681818182,0.0594164308,1
908,10,0.6299613442,0.1707336849,0.5681818182,0.0827269113,1
909,10,0.4891133748,0.1689733029,0.5681818182,0.0802458031,1
910,10,0.7229948033,0.1689733029,0.5681818182,0.0865142249,1
911,10,0.651469,0.1698534939,0.5596590909,0.0952603444,1
912,10,0.6753697845,0.1786547164,0.5738636364,0.0867950193,1
913,10,0.6085396525,0.1777745254,0.5738636364,0.0875780036,1
914,10,0.5058514112,0.1777745254,0.5738636364,0.076393975,1
915,10,0.7183767769,0.1777745254,0.5738636364,0.0758130603,1
916,10,0.6308875377,0.1804150983,0.5738636364,0.0838051844,1
917,10,0.6274850244,0.1786547164,0.5738636364,0.0898826206,1
918,10,0.655251419,0.187456626,0.5738636364,0.0940578738,1
919,10,0.7285649057,0.1962578485,0.5738636364,0.0944713918,1
920,10,0.6698301855,0.1944974666,0.5681818182,0.0998792414,1
921,10,0.569132059,0.1944974666,0.5681818182,0.0959566463,1
922,10,0.6260291813,0.1962578485,0.5681818182,0.0904862716,1
923,10,0.5714503158,0.1988984214,0.5738636364,0.0897138029,1
924,10,0.6154167781,0.1953776576,0.5738636364,0.0874032176,1
925,10,0.5965703116,0.1944974666,0.5738636364,0.0896717406,1
926,10,0.7003270952,0.1953776576,0.5681818182,0.0840260116,1
927,10,0.6496110668,0.1936172757,0.5681818182,0.0908042968,1
928,10,0.4908603866,0.189217008,0.5681818182,0.0793084955,1
929,10,0.58415636,0.1839358622,0.5681818182,0.0834601597,1
930,10,0.4624645131,0.1795349074,0.5681818182,0.0748808684,1
931,10,0.7100881767,0.1786547164,0.5681818182,0.0752864287,1
932,10,0.6432580447,0.1804150983,0.5681818182,0.0784555968,1
933,10,0.485674812,0.1795349074,0.5738636364,0.0706592898,1
934,10,0.6877707949,0.1786547164,0.5738636364,0.0695236073,1
935,10,0.7212052721,0.1742544487,0.5738636364,0.0653085655,1
936,10,0.5589494762,0.1768950216,0.5681818182,0.0676646235,1
937,10,0.4891022827,0.1760148306,0.5681818182,0.0703571801,1
938,10,0.7138262272,0.1760148306,0.5681818182,0.058660446,1
939,10,0.6694243985,0.1733742577,0.5596590909,0.051958896,1
940,10,0.4991628519,0.1742544487,0.5596590909,0.0425784313,1
941,10,0.6891046245,0.1724940668,0.5568181818,0.0504668206,1
942,10,0.7217376947,0.1733742577,0.5681818182,0.0438192696,1
943,10,0.53475475,0.1733742577,0.5681818182,0.0433429423,1
944,10,0.674931645,0.1716138758,0.5681818182,0.0457524309,1
945,10,0.6245261965,0.1768950216,0.5738636364,0.0539187726,1
946,10,0.5852988502,0.1760148306,0.5681818182,0.0632256282,1
947,10,0.5771045332,0.1760148306,0.5681818182,0.0537064715,1
948,10,0.664965359,0.1795349074,0.5681818182,0.0559849417,1
949,10,0.4738894153,0.1760148306,0.5681818182,0.053053653,1
950,10,0.7139149643,0.1742544487,0.5681818182,0.056876208,1
951,10,0.6627497044,0.1742544487,0.5681818182,0.0660173723,1
952,10,0.5780085425,0.1830556712,0.5596590909,0.0986264665,1
953,10,0.7206506652,0.1962578485,0.5596590909,0.0910617864,1
954,10,0.6691803714,0.1962578485,0.5596590909,0.094165019,1
955,10,0.5722970153,0.1953776576,0.5596590909,0.0919084326,1
956,10,0.6927733491,0.1900971989,0.5596590909,0.098643803,1
957,10,0.6148261218,0.189217008,0.5596590909,0.0991027938,1
958,10,0.6689668478,0.1848160531,0.5596590909,0.0900471752,1
959,10,0.5710981404,0.1988984214,0.5681818182,0.1027073637,1
960,10,0.7084742706,0.1997786124,0.5681818182,0.1090920252,1
961,10,0.6913091869,0.2024191853,0.5596590909,0.1156361257,1
962,10,0.6005144906,0.1988984214,0.5596590909,0.1200452795,1
963,10,0.6555398146,0.1971380395,0.5738636364,0.1153954042,1
964,10,0.6794794216,0.1988984214,0.5596590909,0.1286015502,1
965,10,0.5880441544,0.1865764351,0.5596590909,0.1295888778,1
966,10,0.6601180946,0.1865764351,0.5596590909,0.1327469619,1
967,10,0.5507967547,0.188336817,0.5738636364,0.1334927154,1
968,10,0.5060788,0.188336817,0.5738636364,0.1218727166,1
969,10,0.5638688394,0.1865764351,0.5738636364,0.0341011695,1
970,10,0.4169756548,0.189217008,0.5596590909,0.0,1
971,10,0.7859334439,0.1927377718,0.5596590909,0.0028437536,1
3888,10,0.7073105201,0.1416550888,0.5965909091,0.3047488638,0
3889,10,0.6443360153,0.2287795647,0.5965909091,0.3073758638,0
3890,10,0.5230523591,0.1830171929,0.5965909091,0.3222565447,0
3891,10,0.7202683558,0.152215319,0.5965909091,0.3729699604,0
3892,10,0.7451324925,0.1486952423,0.5965909091,0.3652260418,0
3893,10,0.3399115469,0.1460553565,0.6022727273,0.3638233394,0
3894,10,0.4987450477,0.1434154707,0.6022727273,0.3682535812,0
3895,10,0.6358719752,0.1460553565,0.6022727273,0.3852873031,0
3896,10,0.612117791,0.1486952423,0.6022727273,0.3909410846,0
3897,10,0.7503835107,0.15309551,0.5965909091,0.397924471,0
3898,10,0.667371429,0.153975701,0.5965909091,0.4035453795,0
3899,10,0.596591756,0.1592561596,0.5965909091,0.3831615457,0
3900,10,0.5533191069,0.1627762364,0.5965909091,0.3716200822,0
3901,10,0.6712660894,0.1610158544,0.5965909091,0.3785643431,0
3902,10,0.6340735692,0.1601363506,0.5965909091,0.3809825473,0
3903,10,0.6766311458,0.1610158544,0.5965909091,0.3816475297,0
3904,10,0.5682446879,0.1566155867,0.5965909091,0.3925927884,0
3905,10,0.6605926529,0.1557360829,0.5965909091,0.400106501,0
3906,10,0.5967389121,0.1548558919,0.5965909091,0.4118119508,0
3907,10,0.5685042439,0.153975701,0.5965909091,0.4175553515,0
3908,10,0.6608352013,0.1566155867,0.6022727273,0.4249135094,0
3909,10,0.5937055817,0.1566155867,0.6022727273,0.4298962832,0
3910,10,0.600544994,0.1566155867,0.6022727273,0.4311886573,0
3911,10,0.6748482688,0.1566155867,0.6022727273,0.437924975,0
3912,10,0.6020749692,0.1566155867,0.6022727273,0.4400504483,0
3913,10,0.6002092716,0.1557360829,0.6022727273,0.4413322121,0
3914,10,0.6779395955,0.1548558919,0.6022727273,0.4464478043,0
3915,10,0.6274996294,0.15309551,0.6022727273,0.4467412363,0
3916,10,0.5361987611,0.152215319,0.6022727273,0.4461477787,0
3917,10,0.6819620274,0.152215319,0.6022727273,0.4503862202,0
3918,10,0.5936405074,0.1548558919,0.6022727273,0.4488230936,0
3919,10,0.5632014621,0.153975701,0.6022727273,0.4507586232,0
3920,10,0.6762717606,0.1548558919,0.6022727273,0.4555541061,0
3921,10,0.641961559,0.15309551,0.6022727273,0.455493381,0
3922,10,0.5629041928,0.15309551,0.6022727273,0.4535695985,0
3923,10,0.6201936074,0.15309551,0.6022727273,0.4564351221,0
3924,10,0.6661002699,0.152215319,0.6051136364,0.4614703981,0
3925,10,0.6179515169,0.1495754333,0.6051136364,0.4585245203,0
3926,10,0.5581109106,0.1513358152,0.6051136364,0.45877481,0
3927,10,0.6678173329,0.1486952423,0.6051136364,0.462875791,0
3928,10,0.6375507437,0.1486952423,0.6022727273,0.4656284664,0
3929,10,0.5746847833,0.1504556242,0.6022727273,0.4612859492,0
3930,10,0.612931954,0.1495754333,0.6022727273,0.4638940969,0
3931,10,0.6559524422,0.1486952423,0.6022727273,0.4684780367,0
3932,10,0.5667701734,0.1486952423,0.6051136364,0.4619177365,0
3933,10,0.670045373,0.1460553565,0.6051136364,0.4653063108,0
3934,10,0.6253322256,0.1460553565,0.6051136364,0.4634725264,0
3935,10,0.5634321786,0.1451751656,0.6051136364,0.4594290495,0
3936,10,0.6677685275,0.1469355475,0.6022727273,0.4612346028,0
3937,10,0.6129179047,0.1442949746,0.6022727273,0.4583106088,0
3938,10,0.5454784439,0.1469355475,0.6022727273,0.4533671499,0
3939,10,0.6896244764,0.1469355475,0.6022727273,0.4551537562,0
3940,10,0.6453609289,0.1460553565,0.6022727273,0.450758718,0
3941,10,0.5458548378,0.1460553565,0.6022727273,0.4437260694,0
3942,10,0.6883622432,0.1460553565,0.6022727273,0.4443615514,0
3943,10,0.6649355954,0.1460553565,0.6022727273,0.4397562963,0
3944,10,0.5681655644,0.1451751656,0.6051136364,0.4312938131,0
3945,10,0.6286561689,0.1434154707,0.6051136364,0.431733478,0
3946,10,0.6187708555,0.1434154707,0.6051136364,0.4199742188,0
3947,10,0.5571924815,0.1434154707,0.6051136364,0.4188812618,0
3948,10,0.6872596325,0.1442949746,0.6051136364,0.4210130822,0
3949,10,0.6546154702,0.1416550888,0.6051136364,0.4105798091,0
3950,10,0.539908712,0.1425352798,0.6051136364,0.4082900845,0
3951,10,0.6698146565,0.1442949746,0.6051136364,0.4115521875,0
3952,10,0.6755278475,0.1442949746,0.6136363636,0.4107019414,0
3953,10,0.5974347585,0.1425352798,0.6136363636,0.400413537,0
3954,10,0.5404921584,0.1434154707,0.6136363636,0.401012546,0
3955,10,0.6835053132,0.1434154707,0.6136363636,0.4069043585,0
3956,10,0.6569944698,0.1434154707,0.6022727273,0.4038922989,0
3957,10,0.5718806908,0.1407748979,0.6022727273,0.4009713363,0
3958,10,0.5980551784,0.1398947069,0.6022727273,0.405591749,0
3959,10,0.679184556,0.1398947069,0.6022727273,0.4115496297,0
3960,10,0.5371793062,0.139015203,0.6051136364,0.4043755039,0
3961,10,0.6785057172,0.139015203,0.6051136364,0.4095353753,0
3962,10,0.6497001733,0.1407748979,0.6051136364,0.4087999479,0
3963,10,0.5495551751,0.1407748979,0.6051136364,0.4052695555,0
3964,10,0.6336461525,0.1416550888,0.6136363636,0.4095877637,0
3965,10,0.6679689247,0.1416550888,0.6136363636,0.4126838912,0
3966,10,0.6006182021,0.1407748979,0.6136363636,0.4042760322,0
3967,10,0.5589694421,0.1407748979,0.6136363636,0.4055509183,0
3968,10,0.6943608193,0.139015203,0.6051136364,0.4112731931,0
3969,10,0.6543921477,0.1381350121,0.6051136364,0.4048079121,0
3970,10,0.5477210634,0.1372548211,0.6051136364,0.401816751,0
3971,10,0.6092094324,0.1372548211,0.6051136364,0.4056502005,0
3972,10,0.6830106038,0.1372548211,0.6136363636,0.4100099216,0
3973,10,0.6305595798,0.139015203,0.6136363636,0.4004095581,0
3974,10,0.6845442771,0.1398947069,0.6136363636,0.4049529513,0
3975,10,0.6632192712,0.139015203,0.6136363636,0.4028370463,0
3976,10,0.5734424638,0.1381350121,0.6136363636,0.3984047772,0
3977,10,0.5876004689,0.1381350121,0.6136363636,0.4005656813,0
3978,10,0.6909052478,0.139015203,0.6136363636,0.4068604394,0
3979,10,0.6407539946,0.1354944392,0.6136363636,0.4009300319,0
3980,10,0.5232024734,0.1346149353,0.6136363636,0.399242992,0
3981,10,0.6795676041,0.1346149353,0.6136363636,0.4045813061,0
3982,10,0.676265844,0.1346149353,0.6136363636,0.4084498644,0
3983,10,0.5876625848,0.1354944392,0.6136363636,0.3963477026,0
3984,10,0.5460754649,0.1372548211,0.6193181818,0.394489003,0
3985,10,0.6946137201,0.1363746302,0.6193181818,0.3994304725,0
3986,10,0.6520132546,0.1363746302,0.6193181818,0.3956759371,0
3987,10,0.5371497279,0.1354944392,0.6193181818,0.3914140962,0
3988,10,0.6692837136,0.1346149353,0.6051136364,0.3985333325,0
3989,10,0.5827413725,0.1328545534,0.6051136364,0.3903555279,0
3990,10,0.5989891364,0.1328545534,0.6051136364,0.391531757,0
3991,10,0.6709127782,0.1337347444,0.6051136364,0.3964769211,0
3992,10,0.5946010866,0.1337347444,0.6051136364,0.3894974946,0
3993,10,0.5406016012,0.1319743625,0.6051136364,0.3877897267,0
3994,10,0.6974636597,0.1328545534,0.6051136364,0.3923316041,0
3995,10,0.6611361677,0.1346149353,0.6051136364,0.390180742,0
3996,10,0.5416095061,0.1337347444,0.6136363636,0.3829383502,0
3997,10,0.6221731847,0.1328545534,0.6136363636,0.3859560371,0
3998,10,0.6920503791,0.1337347444,0.6136363636,0.3926785424,0
3999,10,0.6259363767,0.1328545534,0.6136363636,0.3829806967,0
4000,10,0.5264931403,0.1319743625,0.6136363636,0.3795435235,0
4001,10,0.6977306109,0.1302146677,0.6136363636,0.3840844536,0
4002,10,0.5513912933,0.1293344767,0.6136363636,0.3736616202,0
4003,10,0.6112777468,0.1293344767,0.6136363636,0.3755842659,0
4004,10,0.68350975,0.1293344767,0.6136363636,0.3812853391,0
4005,10,0.610470979,0.1302146677,0.6136363636,0.3703078137,0
4006,10,0.5569166567,0.1302146677,0.6136363636,0.3662110958,0
4007,10,0.6958848791,0.1310941715,0.6136363636,0.3693145178,0
4008,10,0.6478781055,0.1310941715,0.6136363636,0.3615348842,0
4009,10,0.5216917242,0.1310941715,0.6136363636,0.3535460758,0
4010,10,0.6723621512,0.1284542857,0.6136363636,0.3558593137,0
4011,10,0.6948030252,0.1275740948,0.6136363636,0.3563183045,0
4012,10,0.6150598487,0.1275740948,0.6136363636,0.3418411187,0
4013,10,0.5140056113,0.1266945909,0.6136363636,0.3399451693,0
4014,10,0.6804024728,0.1266945909,0.6136363636,0.34490047,0
4015,10,0.6860801678,0.1258144,0.6136363636,0.3447447258,0
4016,10,0.5277169736,0.1284542857,0.6136363636,0.3351431497,0
4017,10,0.6755234106,0.1293344767,0.6136363636,0.3414946162,0
4018,10,0.6748423533,0.1275740948,0.6136363636,0.3433327015,0
4019,10,0.607792597,0.1284542857,0.6136363636,0.335628761,0
4020,10,0.5476732086,0.1275740948,0.6193181818,0.3383675483,0
4021,10,0.6786210754,0.1275740948,0.6193181818,0.3462457063,0
4022,10,0.5793885897,0.1258144,0.6193181818,0.3449350862,0
4023,10,0.5595935601,0.124934209,0.6193181818,0.3499123275,0
4024,10,0.6814074205,0.124934209,0.6193181818,0.3591728578,0
4025,10,0.643363816,0.1258144,0.6193181818,0.3589210523,0
4026,10,0.5492209313,0.124054018,0.6193181818,0.3589395257,0
4027,10,0.6141476523,0.1266945909,0.6193181818,0.3652477361,0
4028,10,0.6742071432,0.1266945909,0.6193181818,0.371753469,0
4029,10,0.5207673786,0.1258144,0.6193181818,0.3681716355,0
4030,10,0.6790891636,0.1275740948,0.6193181818,0.3747307041,0
4031,10,0.6531017627,0.1266945909,0.6136363636,0.3761011398,0
4032,10,0.5465743471,0.1258144,0.6136363636,0.3709672637,0
4033,10,0.6796060573,0.1222943232,0.6136363636,0.3767078224,0
4034,10,0.5882142335,0.1222943232,0.6193181818,0.3683327796,0
4035,10,0.5950077987,0.1222943232,0.6193181818,0.3692544559,0
4036,10,0.683296781,0.1214141323,0.6193181818,0.3746456321,0
4037,10,0.6128683594,0.1231738271,0.6193181818,0.3659170385,0
4038,10,0.5521610877,0.1222943232,0.6136363636,0.3638831361,0
4039,10,0.6996199714,0.124054018,0.6136363636,0.3673661042,0
4040,10,0.6550199627,0.124054018,0.6136363636,0.3610557149,0
4041,10,0.5341459769,0.1231738271,0.6136363636,0.3546846004,0
4042,10,0.6931554733,0.1231738271,0.6136363636,0.3604585058,0
4043,10,0.6102868495,0.124054018,0.6136363636,0.3500664613,0
4044,10,0.5190976425,0.1214141323,0.6136363636,0.3506636704,0
4045,10,0.6884568436,0.1205339413,0.6136363636,0.3569102084,0
4046,10,0.6734647098,0.1205339413,0.6136363636,0.3573635151,0
4047,10,0.5778771006,0.1196537503,0.6136363636,0.350914718,0
4048,10,0.5992095006,0.1214141323,0.6136363636,0.3532800222,0
4049,10,0.6742478147,0.1214141323,0.6136363636,0.3596327013,0
4050,10,0.6146497568,0.1222943232,0.6136363636,0.3544823413,0
4051,10,0.5293726594,0.1222943232,0.6136363636,0.3551495595,0
4052,10,0.6818028286,0.1231738271,0.6136363636,0.3619252869,0
4053,10,0.6553468114,0.1222943232,0.6136363636,0.3627937221,0
4054,10,0.5429915865,0.1214141323,0.6136363636,0.3589912509,0
4055,10,0.6326582123,0.1205339413,0.6136363636,0.3640158977,0
4056,10,0.5909199764,0.1214141323,0.6136363636,0.3616802076,0
4057,10,0.5606450947,0.1222943232,0.6136363636,0.363236627,0
4058,10,0.6967663336,0.1222943232,0.6136363636,0.3690881013,0
4059,10,0.6473146249,0.1205339413,0.6136363636,0.361626114,0
4060,10,0.5285917729,0.1214141323,0.6136363636,0.3585122711,0
4061,10,0.6767339322,0.1231738271,0.6136363636,0.3618031736,0
4062,10,0.6748697143,0.1222943232,0.6136363636,0.3611878701,0
4063,10,0.5702723308,0.1222943232,0.6136363636,0.3543740971,0
4064,10,0.5998654153,0.1205339413,0.6136363636,0.3563678509,0
4065,10,0.6987266849,0.1214141323,0.6136363636,0.3619018874,0
4066,10,0.6323707152,0.1187735594,0.6136363636,0.3552337788,0
4067,10,0.5081282578,0.1187735594,0.6136363636,0.3542053363,0
4068,10,0.6808439399,0.1196537503,0.6136363636,0.3600852501,0
4069,10,0.674928872,0.1178940555,0.6136363636,0.3622085444,0
4070,10,0.6188100484,0.1178940555,0.6136363636,0.36090376,0
4071,10,0.6756875742,0.1187735594,0.6136363636,0.3662901995,0
4072,10,0.5877683295,0.1205339413,0.6136363636,0.360203934,0
4073,10,0.6263186861,0.1196537503,0.6136363636,0.3624590236,0
4074,10,0.6767102694,0.1187735594,0.6136363636,0.3675647634,0
4075,10,0.6021821936,0.1196537503,0.6136363636,0.3625881473,0
4076,10,0.5811862548,0.1196537503,0.6136363636,0.3654090698,0
4077,10,0.6896333501,0.1170138646,0.6136363636,0.371712733,0
4078,10,0.635985115,0.1170138646,0.6136363636,0.3664458679,0
4079,10,0.5178856412,0.1170138646,0.6136363636,0.366785379,0
4080,10,0.6613758643,0.1178940555,0.6136363636,0.3723897089,0
4081,10,0.6874075273,0.1161336736,0.6136363636,0.3765523623,0
4082,10,0.6230250609,0.1170138646,0.6136363636,0.3700833866,0
4083,10,0.5188624892,0.1178940555,0.6136363636,0.3724348595,0
4084,10,0.6814355202,0.1178940555,0.6136363636,0.3842254191,0
4085,10,0.6258846141,0.1178940555,0.6136363636,0.3769180392,0
4086,10,0.5277879633,0.1178940555,0.6136363636,0.3790072289,0
4087,10,0.670963802,0.1152534826,0.6136363636,0.3886310677,0
4088,10,0.612943786,0.1170138646,0.6136363636,0.3829267925,0
4089,10,0.5463502859,0.1152534826,0.6193181818,0.3858987225,0
4090,10,0.6844962105,0.1152534826,0.6193181818,0.393085789,0
4091,10,0.6543315114,0.1143732917,0.6193181818,0.3950160704,0
4092,10,0.5708476434,0.1152534826,0.6193181818,0.3914012122,0
4093,10,0.569771442,0.1170138646,0.6136363636,0.3958426706,0
4094,10,0.682180172,0.1178940555,0.6136363636,0.403761091,0
4095,10,0.6377302777,0.1170138646,0.6136363636,0.3987399495,0
4096,10,0.5334774903,0.1161336736,0.6136363636,0.3973987868,0
4097,10,0.6679659676,0.1161336736,0.6136363636,0.4054588359,0
4098,10,0.5913858462,0.1161336736,0.6136363636,0.3973707453,0
4099,10,0.5557261009,0.1143732917,0.6136363636,0.3990995633,0
4100,10,0.6832213544,0.1143732917,0.6136363636,0.4054226472,0
4101,10,0.6471083111,0.1134937878,0.6136363636,0.4003249598,0
4102,10,0.5445452257,0.1134937878,0.6136363636,0.3969416907,0
4103,10,0.6633878717,0.1126135969,0.6136363636,0.4003550855,0
4104,10,0.6600483994,0.1126135969,0.6136363636,0.403340771,0
4105,10,0.5709075409,0.1143732917,0.6051136364,0.3953080814,0
4106,10,0.5973585921,0.1152534826,0.6051136364,0.396851882,0
4107,10,0.6818876036,0.1143732917,0.6051136364,0.4024574434,0
4108,10,0.6182384328,0.1170138646,0.6051136364,0.3933261316,0
4109,10,0.5450791269,0.1152534826,0.6136363636,0.3924574121,0
4110,10,0.6931088863,0.1152534826,0.6136363636,0.3973431774,0
4111,10,0.5307872775,0.1143732917,0.6136363636,0.3864061228,0
4112,10,0.6687668199,0.1117334059,0.6136363636,0.3895658174,0
4113,10,0.6757925802,0.1117334059,0.6136363636,0.391816265,0
4114,10,0.5901760633,0.1108532149,0.6136363636,0.3809565899,0
4115,10,0.5968845884,0.1126135969,0.6136363636,0.3806716272,0
4116,10,0.6879991077,0.1126135969,0.6136363636,0.3856879372,0
4117,10,0.6303798872,0.1126135969,0.6051136364,0.377248001,0
4118,10,0.5090910554,0.1134937878,0.6051136364,0.3760801086,0
4119,10,0.6922333473,0.1152534826,0.6051136364,0.380852552,0
4120,10,0.5968869655,0.1134937878,0.6136363636,0.3724114032,0
4121,10,0.5260812526,0.1117334059,0.6136363636,0.372881478,0
4122,10,0.6988220773,0.1108532149,0.6136363636,0.3795395446,0
4123,10,0.668689175,0.1117334059,0.6136363636,0.378915715,0
4124,10,0.584948708,0.1099737111,0.6136363636,0.3729067722,0
4125,10,0.6822777828,0.1099737111,0.6136363636,0.3802969505,0
4126,10,0.632547291,0.1090935201,0.6136363636,0.3760071627,0
4127,10,0.5304914867,0.1108532149,0.6136363636,0.3717469323,0
4128,10,0.6879680497,0.1126135969,0.6136363636,0.375160706,0
4129,10,0.6540105782,0.1126135969,0.6136363636,0.3789013153,0
4130,10,0.5495877117,0.1117334059,0.6136363636,0.3702078684,0
4131,10,0.6181696616,0.1108532149,0.6136363636,0.3721275773,0
4132,10,0.6740732988,0.1108532149,0.6193181818,0.3792920022,0
4133,10,0.5964534736,0.1090935201,0.6193181818,0.3709934105,0
4134,10,0.5542559167,0.1090935201,0.6193181818,0.3687527396,0
4135,10,0.6888384132,0.1090935201,0.6193181818,0.3731942549,0
4136,10,0.6302652688,0.1082133292,0.6193181818,0.3703663599,0
4137,10,0.5238465562,0.1090935201,0.6193181818,0.3621075569,0
4138,10,0.6597489117,0.1099737111,0.6193181818,0.3643172495,0
4139,10,0.5319807915,0.1108532149,0.6193181818,0.3517071758,0
4140,10,0.6598524379,0.1108532149,0.6136363636,0.3505672302,0
4141,10,0.6715472485,0.1108532149,0.6136363636,0.353442341,0
4142,10,0.5641561258,0.1108532149,0.6136363636,0.3405747777,0
4143,10,0.628163678,0.1099737111,0.6136363636,0.3375218494,0
4144,10,0.6996599031,0.1082133292,0.6193181818,0.340996064,0
4145,10,0.6105759839,0.1082133292,0.6193181818,0.3283750958,0
4146,10,0.5267127647,0.1073331382,0.6193181818,0.3239366689,0
4147,10,0.7137691027,0.1082133292,0.6193181818,0.3273862335,0
4148,10,0.6872530294,0.1099737111,0.6193181818,0.3260720893,0
4149,10,0.5744163535,0.1099737111,0.6193181818,0.3139085014,0
4150,10,0.5517122255,0.1090935201,0.6193181818,0.3167031823,0
4151,10,0.7078873113,0.1082133292,0.6193181818,0.3259642809,0
4152,10,0.5631526567,0.1090935201,0.6193181818,0.3162275181,0
4153,10,0.5914886326,0.1090935201,0.6193181818,0.3202260906,0
4154,10,0.6888006999,0.1082133292,0.6193181818,0.3295687561,0
4155,10,0.6395375564,0.1064529472,0.6193181818,0.3256914443,0
4156,10,0.5410260596,0.1055734434,0.6136363636,0.3241459384,0
4157,10,0.6491145084,0.1055734434,0.6136363636,0.330201775,0
4158,10,0.6608899222,0.1055734434,0.6136363636,0.337678541,0
4159,10,0.588580274,0.1055734434,0.6136363636,0.3325554647,0
4160,10,0.5564064183,0.1073331382,0.6136363636,0.3370513957,0
4161,10,0.6789005973,0.1073331382,0.6136363636,0.3438319167,0
4162,10,0.6315269207,0.1082133292,0.6136363636,0.3464085556,0
4163,10,0.5314350583,0.1073331382,0.6136363636,0.3412443643,0
4164,10,0.6594272397,0.1055734434,0.6136363636,0.3461469924,0
4165,10,0.6643040823,0.1073331382,0.6136363636,0.3530736326,0
4166,10,0.5704527632,0.1046932524,0.6136363636,0.3458674296,0
4167,10,0.6833759045,0.1046932524,0.6136363636,0.3528460793,0
4168,10,0.6297579887,0.1055734434,0.6136363636,0.3491947482,0
4169,10,0.5330966606,0.1038130615,0.6136363636,0.3441592638,0
4170,10,0.689292451,0.1029328705,0.6136363636,0.3476291207,0
4171,10,0.6607464642,0.1055734434,0.6136363636,0.3511286295,0
4172,10,0.5532458988,0.1055734434,0.6136363636,0.3426176421,0
4173,10,0.59432822,0.1055734434,0.6136363636,0.3453922391,0
4174,10,0.7027109809,0.1055734434,0.6136363636,0.3529590981,0
4175,10,0.6404522884,0.1046932524,0.6136363636,0.3443887119,0
4176,10,0.5109442876,0.1038130615,0.6193181818,0.3431867717,0
4177,10,0.6773114633,0.1029328705,0.6193181818,0.3481952567,0
4178,10,0.6892495621,0.1029328705,0.6193181818,0.3547584557,0
4179,10,0.6120726838,0.1020526795,0.6193181818,0.3449673529,0
4180,10,0.6942757792,0.1020526795,0.6193181818,0.353140705,0
4181,10,0.6628598859,0.1020526795,0.6193181818,0.355632613,0
4182,10,0.5544187072,0.1029328705,0.6193181818,0.3494341055,0
4183,10,0.6780694257,0.1038130615,0.6193181818,0.3606551376,0
4184,10,0.6148006099,0.1038130615,0.6193181818,0.3541991785,0
4185,10,0.5210432035,0.1029328705,0.6193181818,0.3543500913,0
4186,10,0.6933965421,0.1029328705,0.6193181818,0.3612088065,0
4187,10,0.6643706351,0.1011731757,0.6193181818,0.3652004634,0
4188,10,0.5696415575,0.1011731757,0.6193181818,0.3579161988,0
4189,10,0.5601965498,0.1020526795,0.6193181818,0.3612054719,0
4190,10,0.6902596854,0.1011731757,0.6193181818,0.3689929874,0
4191,10,0.6520287836,0.1002929847,0.6136363636,0.3670338688,0
4192,10,0.5396661635,0.1011731757,0.6136363636,0.3617703005,0
4193,10,0.6710784215,0.1029328705,0.6136363636,0.3710902296,0
4194,10,0.5908120122,0.1029328705,0.6136363636,0.3615633994,0
4195,10,0.576089048,0.1020526795,0.6193181818,0.3621016265,0
4196,10,0.6859840367,0.1020526795,0.6193181818,0.3675963101,0
4197,10,0.6236669252,0.1020526795,0.6193181818,0.3633723632,0
4198,10,0.5278545161,0.1002929847,0.6193181818,0.3582652023,0
4199,10,0.6926371011,0.0994127938,0.6136363636,0.3623937512,0
4200,10,0.6467400521,0.0994127938,0.6136363636,0.3619628019,0
4201,10,0.5230856355,0.0994127938,0.6136363636,0.3519874586,0
4202,10,0.6695565802,0.0985326028,0.6136363636,0.3532562816,0
4203,10,0.6797690052,0.1029328705,0.6136363636,0.3574522818,0
4204,10,0.5908475071,0.1020526795,0.6136363636,0.3442148733,0
4205,10,0.5695328545,0.1011731757,0.6136363636,0.3424754449,0
4206,10,0.6971686089,0.1011731757,0.6136363636,0.3474344403,0
4207,10,0.6879066736,0.1002929847,0.6136363636,0.3369902917,0
4208,10,0.6831925149,0.1002929847,0.6136363636,0.340748408,0
4209,10,0.5839999608,0.0985326028,0.6136363636,0.3293098455,0
4210,10,0.5358977948,0.0985326028,0.6136363636,0.329449769,0
4211,10,0.7065355501,0.0976524118,0.6136363636,0.336535185,0
4212,10,0.6648505553,0.0976524118,0.6136363636,0.3368677994,0
4213,10,0.5435269674,0.0994127938,0.6136363636,0.3289577157,0
4214,10,0.6075530069,0.1002929847,0.6193181818,0.3330005295,0
4215,10,0.6864683926,0.0994127938,0.6193181818,0.3418845831,0
4216,10,0.632033989,0.1011731757,0.6193181818,0.33434065,0
4217,10,0.5318491644,0.1002929847,0.6193181818,0.3337192835,0
4218,10,0.6824456446,0.1002929847,0.6136363636,0.3396181443,0
4219,10,0.6430567224,0.0994127938,0.6136363636,0.3401835224,0
4220,10,0.6653297357,0.0994127938,0.6136363636,0.3379014524,0
4221,10,0.6590863405,0.0976524118,0.6136363636,0.3403380351,0
4222,10,0.5505933992,0.096772908,0.6136363636,0.3323138906,0
4223,10,0.6157589706,0.096772908,0.6136363636,0.3347728308,0
4224,10,0.6881292562,0.0976524118,0.6136363636,0.3397783411,0
4225,10,0.5971153049,0.0976524118,0.6136363636,0.3274734086,0
4226,10,0.5365152576,0.0976524118,0.6193181818,0.3259503549,0
4227,10,0.7034105243,0.0985326028,0.6193181818,0.3313305419,0
4228,10,0.6645754703,0.0985326028,0.6193181818,0.3221898513,0
4229,10,0.5411650818,0.0985326028,0.6193181818,0.3171412177,0
4230,10,0.6881011553,0.0976524118,0.6193181818,0.3249654904,0
4231,10,0.6047999382,0.0976524118,0.6193181818,0.314760737,0
4232,10,0.5535084131,0.095892717,0.6193181818,0.3153359675,0
4233,10,0.6468901654,0.1073331382,0.6193181818,0.3140811274,0
4234,10,0.536493812,0.095892717,0.6193181818,0.3122882496,0
4235,10,0.6896488791,0.095892717,0.6193181818,0.3178220019,0
4236,10,0.6748689745,0.096772908,0.6193181818,0.3186558589,0
4237,10,0.5675481016,0.096772908,0.6136363636,0.3141532965,0
4238,10,0.5930348767,0.0976524118,0.6136363636,0.3197008801,0
4239,10,0.6919190693,0.0976524118,0.6136363636,0.3279400919,0
4240,10,0.6413248703,0.0985326028,0.6136363636,0.3216347993,0
4241,10,0.5248152703,0.0976524118,0.6136363636,0.3236273593,0
4242,10,0.6513699106,0.095892717,0.6136363636,0.3319391192,0
4243,10,0.6730582617,0.095892717,0.6136363636,0.3380338918,0
4244,10,0.6138999283,0.095892717,0.6136363636,0.3327086511,0
4245,10,0.5223343284,0.095892717,0.6136363636,0.3366790495,0
4246,10,0.6652461753,0.095892717,0.6136363636,0.3446980215,0
4247,10,0.562147709,0.0985326028,0.6136363636,0.344998426,0
4248,10,0.6232794402,0.0985326028,0.6136363636,0.3500445775,0
4249,10,0.6664596552,0.0985326028,0.625,0.3559531013,0
4250,10,0.6034777553,0.096772908,0.625,0.350672045,0
4251,10,0.549423548,0.095892717,0.625,0.3541316325,0
4252,10,0.6925417087,0.0950125261,0.625,0.3614919693,0
4253,10,0.656274854,0.0950125261,0.6136363636,0.3593691486,0
4254,10,0.5646219956,0.0950125261,0.6136363636,0.3575596165,0
4255,10,0.6049271284,0.0950125261,0.6136363636,0.3621629769,0
4256,10,0.6810354634,0.0950125261,0.6136363636,0.36889344,0
4257,10,0.6356690412,0.0950125261,0.6136363636,0.3633227221,0
4258,10,0.5278116262,0.096772908,0.6136363636,0.3652179894,0
4259,10,0.6695040766,0.096772908,0.6136363636,0.3715475152,0
4260,10,0.6847720353,0.0976524118,0.6136363636,0.3770872358,0
4261,10,0.5146985005,0.096772908,0.6136363636,0.3715695885,0
4262,10,0.687230793,0.096772908,0.6136363636,0.378089721,0
4263,10,0.6755736946,0.096772908,0.6136363636,0.3842688078,0
4264,10,0.596987376,0.0985326028,0.6136363636,0.3760283833,0
4265,10,0.5407376641,0.0941323351,0.6136363636,0.378226613,0
4266,10,0.6927480225,0.0941323351,0.6136363636,0.3851268221,0
4267,10,0.6534071658,0.0941323351,0.6136363636,0.3867671577,0
4268,10,0.553024056,0.0950125261,0.6136363636,0.3805598399,0
4269,10,0.6111845729,0.0950125261,0.6136363636,0.3843062281,0
4270,10,0.6726209674,0.096772908,0.6136363636,0.3914174119,0
4271,10,0.6213395839,0.096772908,0.6136363636,0.383942768,0
4272,10,0.5389880645,0.095892717,0.6136363636,0.3825117587,0
4273,10,0.6844525818,0.095892717,0.6136363636,0.3862502838,0
4274,10,0.6457077434,0.0941323351,0.6136363636,0.3865954033,0
4275,10,0.6767893929,0.0941323351,0.6136363636,0.3787490952,0
4276,10,0.6567481178,0.0932521441,0.6136363636,0.381385076,0
4277,10,0.5496646168,0.0923726403,0.6051136364,0.3695130823,0
4278,10,0.6339330695,0.0923726403,0.6051136364,0.3693312859,0
4279,10,0.6927317536,0.0932521441,0.6051136364,0.3740879275,0
4280,10,0.6221820584,0.0932521441,0.6051136364,0.3617892475,0
4281,10,0.5076520346,0.0950125261,0.6136363636,0.3594512838,0
4282,10,0.6906323812,0.095892717,0.6136363636,0.3633950996,0
4283,10,0.6889596868,0.0950125261,0.6136363636,0.3676280464,0
4284,10,0.6050861153,0.0941323351,0.6136363636,0.3543706867,0
4285,10,0.4935993527,0.0950125261,0.6136363636,0.3529681926,0
4286,10,0.6721225611,0.0932521441,0.6136363636,0.3582918228,0
4287,10,0.7004422682,0.0923726403,0.6136363636,0.3652645042,0
4288,10,0.6348056503,0.0941323351,0.6136363636,0.3541424323,0
4289,10,0.6598309935,0.0923726403,0.6136363636,0.3611435341,0
4290,10,0.6870525789,0.0914924493,0.6136363636,0.3684651243,0
4291,10,0.6265826789,0.0932521441,0.6136363636,0.3593124971,0
4292,10,0.5287426259,0.0932521441,0.6136363636,0.3600971867,0
4293,10,0.6751189169,0.0950125261,0.6136363636,0.3648702174,0
4294,10,0.6624583505,0.0950125261,0.6136363636,0.3699037692,0
4295,10,0.5875878982,0.0950125261,0.6136363636,0.361668271,0
4296,10,0.5333939299,0.0941323351,0.6136363636,0.3636274844,0
4297,10,0.6955254938,0.0941323351,0.6136363636,0.3707682256,0
4298,10,0.6688126671,0.0923726403,0.6136363636,0.3719567133,0
4299,10,0.5787140812,0.0923726403,0.6136363636,0.3641903994,0
4300,10,0.5316014404,0.0923726403,0.6136363636,0.3669181974,0
4301,10,0.7039392499,0.0914924493,0.6136363636,0.3751004546,0
4302,10,0.6810110607,0.0914924493,0.6136363636,0.3740984431,0
4303,10,0.5087634668,0.0914924493,0.6136363636,0.3702238786,0
4304,10,0.6931421627,0.0932521441,0.6136363636,0.3787749389,0
4305,10,0.6784739193,0.0941323351,0.6136363636,0.3781718562,0
4306,10,0.5912993276,0.0932521441,0.6136363636,0.3708514976,0
4307,10,0.5385820923,0.0932521441,0.6136363636,0.3747142202,0
4308,10,0.6982475045,0.0941323351,0.6136363636,0.3829257504,0
4309,10,0.6697347931,0.0941323351,0.6193181818,0.3774909014,0
4310,10,0.5584140953,0.0914924493,0.6193181818,0.3733165956,0
4311,10,0.6340232852,0.0914924493,0.6193181818,0.375968094,0
4312,10,0.6805762489,0.0914924493,0.6193181818,0.3812713941,0
4313,10,0.5925301323,0.0914924493,0.6193181818,0.3734019517,0
4314,10,0.5325901193,0.0906122584,0.6193181818,0.3729688236,0
4315,10,0.6987717922,0.0932521441,0.6193181818,0.3783511894,0
4316,10,0.6561742849,0.0941323351,0.6193181818,0.374138137,0
4317,10,0.6113095447,0.0941323351,0.6136363636,0.3686661519,0
4318,10,0.7000030195,0.0932521441,0.6136363636,0.3733295743,0
4319,10,0.6369989365,0.0932521441,0.6136363636,0.3588813584,0
4320,10,0.5170877471,0.0932521441,0.6136363636,0.3565776888,0
4321,10,0.7071818513,0.0914924493,0.6051136364,0.3653469236,0
4322,10,0.6517315143,0.0906122584,0.6051136364,0.3519825703,0
4323,10,0.5343574662,0.0932521441,0.6051136364,0.3516740186,0
4324,10,0.6204413315,0.0914924493,0.6136363636,0.3578885362,0
4325,10,0.6973061514,0.0906122584,0.6136363636,0.3625764002,0
4326,10,0.6438859385,0.0923726403,0.6136363636,0.3499575161,0
4327,10,0.5189497477,0.0923726403,0.6136363636,0.3493179605,0
4328,10,0.683850648,0.0932521441,0.6136363636,0.3555816456,0
4329,10,0.4970124557,0.0932521441,0.6136363636,0.3487372353,0
4330,10,0.6965038204,0.0932521441,0.6136363636,0.3564760382,0
4331,10,0.6762784158,0.0914924493,0.6136363636,0.3516837763,0
4332,10,0.5755381381,0.0906122584,0.6136363636,0.3428011437,0
4333,10,0.5520716107,0.0914924493,0.6136363636,0.345801873,0
4334,10,0.7051970984,0.0906122584,0.6136363636,0.352427294,0
4335,10,0.6602362259,0.0923726403,0.6136363636,0.3397782463,0
4336,10,0.5284949019,0.0932521441,0.6136363636,0.3351747912,0
4337,10,0.6396817542,0.0932521441,0.6136363636,0.3393625494,0
4338,10,0.6846204424,0.0932521441,0.6136363636,0.3418362683,0
4339,10,0.6149449663,0.0932521441,0.6136363636,0.3298051198,0
4340,10,0.5448816868,0.0923726403,0.6136363636,0.329809705,0
4341,10,0.695419748,0.0906122584,0.6136363636,0.3353537455,0
4342,10,0.6460530783,0.0906122584,0.6136363636,0.3272083402,0
4343,10,0.6805888207,0.0906122584,0.6193181818,0.3297492262,0
4344,10,0.7068061983,0.0906122584,0.6193181818,0.3293117402,0
4345,10,0.600351251,0.0914924493,0.6193181818,0.3189973026,0
4346,10,0.502026842,0.0914924493,0.6193181818,0.3215243383,0
4347,10,0.6930896603,0.0914924493,0.6136363636,0.3305835568,0
4348,10,0.6794478091,0.0923726403,0.6136363636,0.3233047869,0
4349,10,0.5853435881,0.0914924493,0.6136363636,0.3169308303,0
4350,10,0.518204356,0.0914924493,0.6136363636,0.3211831978,0
4351,10,0.7129098314,0.0914924493,0.6136363636,0.3297869686,0
4352,10,0.6843963812,0.0906122584,0.6136363636,0.3286008492,0
4353,10,0.5889236023,0.0914924493,0.6136363636,0.3206577978,0
4354,10,0.537323504,0.0897320674,0.6136363636,0.3249850058,0
4355,10,0.6981107007,0.0914924493,0.6193181818,0.3345035941,0
4356,10,0.6567606897,0.0906122584,0.6193181818,0.3314897913,0
4357,10,0.577278865,0.0923726403,0.6193181818,0.335896103,0
4358,10,0.6977239556,0.0923726403,0.6193181818,0.3446858954,0
4359,10,0.6465507459,0.0923726403,0.6051136364,0.3347846727,0
4360,10,0.5211696539,0.0923726403,0.6051136364,0.3345930997,0
4361,10,0.6179981039,0.0923726403,0.6051136364,0.3400243677,0
4362,10,0.6943231061,0.0914924493,0.6051136364,0.3456075717,0
4363,10,0.6275817112,0.0897320674,0.6193181818,0.3292756462,0
4364,10,0.5437813467,0.0897320674,0.6193181818,0.3240565086,0
4365,10,0.6972588245,0.0906122584,0.6193181818,0.3261551719,0
4366,10,0.6337585524,0.0906122584,0.6193181818,0.3232181044,0
4367,10,0.5108198971,0.0906122584,0.6193181818,0.3179645022,0
4368,10,0.6733685775,0.0888518764,0.6193181818,0.3098821715,0
4369,10,0.6529775307,0.0897320674,0.6193181818,0.2853786939,0
4370,10,0.5247398438,0.0923726403,0.6193181818,0.2692628589,0
4371,10,0.6924766344,0.0923726403,0.6136363636,0.2771949779,0
4372,10,0.5997226972,0.0923726403,0.6136363636,0.253155374,0
4373,10,0.7253182369,0.0914924493,0.6136363636,0.2408248306,0
