Unnamed: 0,ID,empatica_bvp,empatica_eda,empatica_temp,samsung_bvp,CL
0,0,0.6305270433,0.2226409027,0.7272727273,0.3418893198,1
1,0,0.5293371645,0.2200010169,0.7329545455,0.3239935099,1
2,0,0.6240048661,0.2226409027,0.7329545455,0.3211599877,1
3,0,0.6471818886,0.2244012846,0.7329545455,0.3105369795,1
4,0,0.6184421588,0.2252814756,0.7215909091,0.3053496728,1
5,0,0.5704668125,0.2279213614,0.7215909091,0.3056827609,1
6,0,0.6137668226,0.2244012846,0.7215909091,0.2997286696,1
7,0,0.6133231371,0.2235210937,0.7215909091,0.2961402994,1
8,0,0.6287301169,0.2217607117,0.7272727273,0.2599246459,1
9,0,0.6121307322,0.2226409027,0.7272727273,0.2575282308,1
10,0,0.6772656161,0.2200010169,0.7329545455,0.2592124286,1
11,0,0.5699528772,0.2217607117,0.7329545455,0.2561094802,1
12,0,0.62303985,0.2217607117,0.7386363636,0.2628019357,1
13,0,0.5897578897,0.217360444,0.7386363636,0.2617503778,1
14,0,0.598531771,0.2226409027,0.7386363636,0.2615156246,1
15,0,0.7075841265,0.2217607117,0.7386363636,0.2666210802,1
16,0,0.6741598175,0.2208812079,0.7329545455,0.270819354,1
17,0,0.6012049762,0.2235210937,0.7272727273,0.2658150753,1
18,0,0.6193609572,0.2208812079,0.7272727273,0.2820534027,1
19,0,0.6630214618,0.2208812079,0.7329545455,0.2717452934,1
20,0,0.4486603472,0.2217607117,0.7329545455,0.2787435532,1
21,0,0.6152254388,0.219120826,0.7329545455,0.2796939341,1
22,0,0.6081209243,0.2200010169,0.7443181818,0.2830231095,1
23,0,0.6676746137,0.218240635,0.7443181818,0.2789061183,1
24,0,0.6581464671,0.217360444,0.7386363636,0.2732970517,1
25,0,0.6143103374,0.219120826,0.7386363636,0.2788725822,1
26,0,0.5746855231,0.218240635,0.7386363636,0.2775379563,1
27,0,0.6259626284,0.217360444,0.7386363636,0.2795376215,1
28,0,0.6114984804,0.2111997944,0.7443181818,0.2792932053,1
29,0,0.5468756839,0.2129601763,0.7443181818,0.2776448173,1
30,0,0.6543936274,0.2111997944,0.7443181818,0.2794824857,1
31,0,0.6024158683,0.2103196035,0.7443181818,0.2817447562,1
32,0,0.6620342615,0.2103196035,0.7443181818,0.2701173681,1
33,0,0.6577212688,0.2103196035,0.7443181818,0.2715832966,1
34,0,0.5511701904,0.2085592215,0.7443181818,0.2682137641,1
35,0,0.644403308,0.2076797177,0.7443181818,0.2699457084,1
36,0,0.6141365602,0.2076797177,0.7443181818,0.2594812864,1
37,0,0.6029187116,0.2076797177,0.7443181818,0.2653921785,1
38,0,0.7073123691,0.2050391448,0.7443181818,0.2742093493,1
39,0,0.6303310818,0.1988784952,0.7443181818,0.2658952211,1
40,0,0.6525116609,0.1997586861,0.7329545455,0.2715662443,1
41,0,0.6765261399,0.1997586861,0.7329545455,0.2715037192,1
42,0,0.535877829,0.2006388771,0.7443181818,0.2788242673,1
43,0,0.6160296188,0.1997586861,0.7443181818,0.2828633864,1
44,0,0.6165028837,0.1979983042,0.7386363636,0.2832879885,1
45,0,0.6395634388,0.1997586861,0.7386363636,0.2863034017,1
46,0,0.6542309423,0.1988784952,0.7443181818,0.2855826583,1
47,0,0.612191739,0.1962379223,0.7443181818,0.2845316688,1
48,0,0.6362284022,0.1979983042,0.7443181818,0.2907148292,1
49,0,0.6688097088,0.1962379223,0.7443181818,0.2847470961,1
50,0,0.5970953391,0.1953577313,0.7443181818,0.2720732657,1
51,0,0.6267668084,0.1953577313,0.7443181818,0.2772236257,1
52,0,0.6644357094,0.1962379223,0.7443181818,0.2790351473,1
53,0,0.6395782279,0.1944775404,0.7443181818,0.2798240999,1
54,0,0.5716684616,0.1927178455,0.7443181818,0.2774595157,1
55,0,0.6095906326,0.1935980365,0.7443181818,0.2783320246,1
56,0,0.5797583272,0.1944775404,0.7443181818,0.2621334859,1
57,0,0.6698153963,0.1909574636,0.7443181818,0.2576350918,1
58,0,0.6243819988,0.1874373869,0.7443181818,0.2631179714,1
59,0,0.6631749026,0.1874373869,0.7443181818,0.2746487299,1
60,0,0.703363568,0.1909574636,0.7471590909,0.283907555,1
61,0,0.4844361896,0.1918376546,0.7443181818,0.2846703608,1
62,0,0.6389829495,0.1909574636,0.7443181818,0.2889942531,1
63,0,0.5922000092,0.1918376546,0.7386363636,0.2977301413,1
64,0,0.6442628072,0.1927178455,0.7386363636,0.2965080605,1
65,0,0.684007787,0.1953577313,0.7443181818,0.2903402472,1
66,0,0.7066302026,0.1944775404,0.7443181818,0.287861981,1
67,0,0.5683167868,0.1962379223,0.7443181818,0.2874578418,1
68,0,0.6921808437,0.1971181132,0.7443181818,0.2865279236,1
69,0,0.6292958159,0.1962379223,0.7443181818,0.2689737278,1
70,0,0.641271628,0.1962379223,0.7443181818,0.2765216398,1
71,0,0.6186085409,0.1935980365,0.7443181818,0.2797723747,1
72,0,0.6993981286,0.1962379223,0.7443181818,0.2817163357,1
73,0,0.6046657233,0.1944775404,0.7443181818,0.2898150367,1
74,0,0.5847608815,0.1953577313,0.7471590909,0.2869462731,1
75,0,0.6450799284,0.1953577313,0.7471590909,0.2691181039,1
76,0,0.5823039729,0.1927178455,0.7471590909,0.2648800414,1
77,0,0.6628088621,0.1927178455,0.7443181818,0.2748760938,1
78,0,0.6242655313,0.1962379223,0.7443181818,0.2781228498,1
79,0,0.6179541047,0.1935980365,0.7386363636,0.2600701588,1
80,0,0.569459277,0.1909574636,0.7443181818,0.2547259711,1
81,0,0.6835585554,0.1935980365,0.7443181818,0.2537915056,1
82,0,0.6534489466,0.1909574636,0.7443181818,0.2558309595,1
83,0,0.4776588932,0.1935980365,0.7471590909,0.2623227663,1
84,0,0.536598818,0.1953577313,0.7471590909,0.2596842086,1
85,0,0.5675680675,0.1944775404,0.7386363636,0.256614228,1
86,0,0.7129749056,0.1944775404,0.7386363636,0.2489986753,1
87,0,0.7410565022,0.1962379223,0.7443181818,0.2564761045,1
88,0,0.5115305859,0.1979983042,0.7443181818,0.2569740314,1
89,0,0.6405931586,0.1988784952,0.7386363636,0.2460617026,1
90,0,0.5856371604,0.1971181132,0.7386363636,0.2393186587,1
91,0,0.6677744429,0.1953577313,0.7443181818,0.2526023926,1
92,0,0.6025138485,0.1971181132,0.7443181818,0.2655774801,1
93,0,0.6457417597,0.1962379223,0.7443181818,0.2667694351,1
94,0,0.6555619989,0.1953577313,0.7443181818,0.2568018032,1
95,0,0.5738406716,0.1944775404,0.7386363636,0.2411932738,1
96,0,0.6411348243,0.1935980365,0.7386363636,0.2441069417,1
97,0,0.6505594446,0.1927178455,0.7386363636,0.2436544876,1
98,0,0.6559835002,0.1900772727,0.7386363636,0.2432440959,1
99,0,0.5455779037,0.1900772727,0.7386363636,0.2313074929,1
100,0,0.6601818744,0.1900772727,0.7386363636,0.2342814122,1
101,0,0.6208916723,0.1883168907,0.7386363636,0.2357609826,1
102,0,0.6440668468,0.1874373869,0.7386363636,0.2328484515,1
103,0,0.603678523,0.1891970817,0.7386363636,0.2356490059,1
104,0,0.5518911794,0.1830364321,0.7443181818,0.219860859,1
105,0,0.6768773913,0.1830364321,0.7386363636,0.2187280185,1
106,0,0.5882438129,0.1865571959,0.7386363636,0.2344797872,1
107,0,0.5812409767,0.1874373869,0.7386363636,0.2409039533,1
108,0,0.6275987188,0.185677005,0.7386363636,0.247015494,1
109,0,0.6753651624,0.185677005,0.7386363636,0.2539859017,1
110,0,0.6047544604,0.1830364321,0.7329545455,0.2608386487,1
111,0,0.6241527609,0.1812760501,0.7329545455,0.2761658153,1
112,0,0.640709626,0.1795163553,0.7329545455,0.2814383834,1
113,0,0.5950266553,0.1786361644,0.7329545455,0.281286618,1
114,0,0.6302164634,0.1733557057,0.7329545455,0.273216906,1
115,0,0.6203500066,0.1759955915,0.7386363636,0.270759671,1
116,0,0.65709826,0.1759955915,0.7386363636,0.2740371211,1
117,0,0.6232912722,0.1759955915,0.7386363636,0.2800457797,1
118,0,0.6170722798,0.1786361644,0.7386363636,0.2863790002,1
119,0,0.6225739802,0.1733557057,0.7329545455,0.2918101546,1
120,0,0.6857991673,0.1742358967,0.7272727273,0.2998434884,1
121,0,0.6638145496,0.1759955915,0.7272727273,0.3027588616,1
122,0,0.6848341513,0.1751154005,0.7386363636,0.3061977401,1
123,0,0.6594516424,0.1751154005,0.7386363636,0.3093006884,1
124,0,0.565283087,0.1724755148,0.7386363636,0.3088215191,1
125,0,0.666654137,0.1742358967,0.7386363636,0.3096110401,1
126,0,0.4590148581,0.1795163553,0.7329545455,0.3149870587,1
127,0,0.6320743965,0.1803965463,0.7329545455,0.3192626362,1
128,0,0.6208325146,0.1795163553,0.7272727273,0.3197128167,1
129,0,0.5842561892,0.1786361644,0.7272727273,0.3178683273,1
130,0,0.656854233,0.1795163553,0.7272727273,0.3120017712,1
131,0,0.6954659657,0.1768757824,0.7272727273,0.3143902286,1
132,0,0.5361495864,0.1786361644,0.7329545455,0.3147926626,1
133,0,0.6446362429,0.1751154005,0.7329545455,0.3152064649,1
134,0,0.6420037092,0.1786361644,0.7329545455,0.3127765135,1
135,0,0.6334553677,0.1733557057,0.7272727273,0.2974862935,1
136,0,0.5909114721,0.1759955915,0.7272727273,0.2836978118,1
137,0,0.5899335149,0.1759955915,0.7329545455,0.2952376649,1
138,0,0.6806025006,0.1759955915,0.7329545455,0.3010479485,1
139,0,0.6118423367,0.1777559734,0.7272727273,0.3022580927,1
140,0,0.6511879995,0.1768757824,0.7272727273,0.2751449516,1
141,0,0.6569263319,0.1759955915,0.7272727273,0.279593894,1
142,0,0.6653951793,0.1733557057,0.7215909091,0.2766358901,1
143,0,0.6816063391,0.1733557057,0.7272727273,0.2811530417,1
144,0,0.5240720971,0.1742358967,0.7272727273,0.2843077154,1
145,0,0.587045862,0.1715953238,0.7215909091,0.2848772619,1
146,0,0.6766315152,0.1707151328,0.7215909091,0.2878676651,1
147,0,0.5965573704,0.1715953238,0.7215909091,0.2686639446,1
148,0,0.6409092845,0.1707151328,0.7272727273,0.2716702633,1
149,0,0.6362672247,0.1715953238,0.7272727273,0.2769002006,1
150,0,0.6511436309,0.1680745599,0.7215909091,0.2812104511,1
151,0,0.6141698366,0.1680745599,0.7159090909,0.2614906146,1
152,0,0.646980381,0.1689547509,0.7159090909,0.2816617684,1
153,0,0.6866144395,0.1663148651,0.7159090909,0.2829691106,1
154,0,0.5908874388,0.1627941013,0.7215909091,0.2900622949,1
155,0,0.633239071,0.1663148651,0.7215909091,0.2928429549,1
156,0,0.5749110629,0.1636742922,0.7215909091,0.2813411853,1
157,0,0.6525560295,0.1627941013,0.7215909091,0.2741394349,1
158,0,0.5586499885,0.1645544832,0.7215909091,0.2837933046,1
159,0,0.6779385384,0.1645544832,0.7215909091,0.2863778634,1
160,0,0.6486072283,0.1627941013,0.7215909091,0.2887947413,1
161,0,0.5713393944,0.1619139103,0.7159090909,0.2816947362,1
162,0,0.6593739974,0.1619139103,0.7159090909,0.2788799715,1
163,0,0.6280793777,0.1619139103,0.7159090909,0.2831600963,1
164,0,0.5833743643,0.1636742922,0.7159090909,0.2835966349,1
165,0,0.5669616969,0.1619139103,0.7102272727,0.2975044826,1
166,0,0.6600210384,0.1592740245,0.7102272727,0.3018249645,1
167,0,0.658305454,0.1627941013,0.7102272727,0.3061295309,1
168,0,0.7189923905,0.1610337194,0.7102272727,0.3083855489,1
169,0,0.5625618162,0.1619139103,0.7102272727,0.3100413262,1
170,0,0.6331447878,0.1619139103,0.7102272727,0.3121933252,1
171,0,0.6438487011,0.1610337194,0.7102272727,0.3051933602,1
172,0,0.5677825151,0.1610337194,0.7102272727,0.3050859308,1
173,0,0.6428448626,0.1601542155,0.7017045455,0.3086657748,1
174,0,0.6543030412,0.1566334517,0.7017045455,0.3100231371,1
175,0,0.7066357487,0.1575136426,0.7017045455,0.3033210187,1
176,0,0.4651987251,0.1539935659,0.7017045455,0.3007637436,1
177,0,0.6492949409,0.1531133749,0.7017045455,0.3024524888,1
178,0,0.6585938496,0.1531133749,0.7017045455,0.296646184,1
179,0,0.6478474169,0.1539935659,0.6988636364,0.2964853241,1
180,0,0.5703355559,0.1531133749,0.6988636364,0.2919931825,1
181,0,0.4109914463,0.152233184,0.7017045455,0.2876988475,1
182,0,0.6592778652,0.152233184,0.7017045455,0.286670026,1
183,0,0.5412852463,0.1557532607,0.7017045455,0.2866279637,1
184,0,0.6643303341,0.1539935659,0.7017045455,0.276406821,1
185,0,0.6162921331,0.1531133749,0.7017045455,0.2779102646,1
186,0,0.5685256884,0.151352993,0.7017045455,0.274311663,1
187,0,0.6346422265,0.1539935659,0.7017045455,0.2763272437,1
188,0,0.6435381212,0.151352993,0.6988636364,0.2755036181,1
189,0,0.3626352703,0.1487124201,0.6931818182,0.2744134083,1
190,0,0.6045548019,0.150472802,0.6988636364,0.2734886058,1
191,0,0.6504152468,0.1478322291,0.6988636364,0.2757514447,1
192,0,0.6605978296,0.1469527253,0.6931818182,0.2724802471,1
193,0,0.6407539946,0.1487124201,0.6931818182,0.264010943,1
194,0,0.5980104405,0.1478322291,0.6988636364,0.2653074855,1
195,0,0.6645743611,0.1487124201,0.6988636364,0.2727928724,1
196,0,0.6295620272,0.1451923434,0.6988636364,0.2747925376,1
197,0,0.6572480039,0.1469527253,0.6988636364,0.2716105803,1
198,0,0.6246186307,0.1443121524,0.6988636364,0.2721266962,1
199,0,0.6221802093,0.1425517705,0.6931818182,0.2817720399,1
200,0,0.5615949511,0.1443121524,0.6931818182,0.2838683347,1
201,0,0.5703577402,0.1443121524,0.6931818182,0.2753495791,1
202,0,0.6442812945,0.1443121524,0.6931818182,0.2772247625,1
203,0,0.6386169089,0.1443121524,0.6931818182,0.2721454538,1
204,0,0.6277983773,0.1407920757,0.6931818182,0.2749477134,1
205,0,0.6502044962,0.1425517705,0.6931818182,0.2814463411,1
206,0,0.5224119734,0.1416715795,0.6931818182,0.2878602758,1
207,0,0.5611900881,0.1407920757,0.6875,0.3040167522,1
208,0,0.6292680856,0.1381515028,0.6875,0.3045215,1
209,0,0.6682735891,0.1390316937,0.6875,0.3080712183,1
210,0,0.6380660001,0.1363911209,0.6818181818,0.3056526352,1
211,0,0.6446196047,0.1372713118,0.6818181818,0.3053167051,1
212,0,0.6648719998,0.1381515028,0.6818181818,0.306405778,1
213,0,0.6566490284,0.1363911209,0.6818181818,0.3082013841,1
214,0,0.60664567,0.1363911209,0.6818181818,0.3061147522,1
215,0,0.4446671775,0.1355109299,0.6875,0.3054150399,1
216,0,0.651951508,0.1346307389,0.6875,0.3061465832,1
217,0,0.6379994473,0.1328710441,0.6875,0.3036620645,1
218,0,0.7377270118,0.1337512351,0.6875,0.3066615623,1
219,0,0.5855761537,0.1311106622,0.6818181818,0.2928656913,1
220,0,0.7112778085,0.1311106622,0.6818181818,0.2936273603,1
221,0,0.5955313476,0.1328710441,0.6818181818,0.2923382072,1
222,0,0.501741774,0.1311106622,0.6818181818,0.2951501298,1
223,0,0.6444088541,0.1311106622,0.6761363636,0.2982911616,1
224,0,0.649466869,0.1302304712,0.6761363636,0.2951887816,1
225,0,0.6478862394,0.1284700893,0.6761363636,0.2955872368,1
226,0,0.5751661821,0.1302304712,0.6818181818,0.296633679,1
227,0,0.5955535319,0.1275898983,0.6818181818,0.2930634979,1
228,0,0.6188507189,0.1302304712,0.6761363636,0.2748317578,1
229,0,0.6612855422,0.1293502803,0.6818181818,0.2802009556,1
230,0,0.7487322618,0.1302304712,0.6818181818,0.279228975,1
231,0,0.6786447383,0.1293502803,0.6818181818,0.2815287605,1
232,0,0.5737057169,0.1284700893,0.6704545455,0.2796927973,1
233,0,0.6560334148,0.1284700893,0.6704545455,0.2832072743,1
234,0,0.4401415852,0.1249500126,0.6818181818,0.2871355535,1
235,0,0.5948048126,0.1249500126,0.6761363636,0.2790232107,1
236,0,0.617575123,0.1240698216,0.6761363636,0.2797223546,1
237,0,0.5903901416,0.1258302035,0.6704545455,0.2685468522,1
238,0,0.6597991957,0.1249500126,0.6704545455,0.2753018326,1
239,0,0.6424104201,0.1231896306,0.6704545455,0.2749948914,1
240,0,0.6537151579,0.1258302035,0.6704545455,0.2793256047,1
241,0,0.6203222762,0.1240698216,0.6704545455,0.2759702824,1
242,0,0.5927083985,0.1205497449,0.6761363636,0.2820528342,1
243,0,0.3683809979,0.1214292487,0.6704545455,0.282991847,1
244,0,0.6290684271,0.1205497449,0.6704545455,0.2880569456,1
245,0,0.5959972174,0.117909172,0.6704545455,0.2728679024,1
246,0,0.6089602298,0.1196695539,0.6704545455,0.2841047931,1
247,0,0.6291571642,0.117909172,0.6647727273,0.287355528,1
248,0,0.677502248,0.118789363,0.6647727273,0.2953246315,1
249,0,0.6375335775,0.1196695539,0.6647727273,0.296712688,1
250,0,0.7247436641,0.1214292487,0.6647727273,0.3079370736,1
251,0,0.5220348407,0.1135089043,0.6704545455,0.3140588457,1
252,0,0.6581298289,0.1143884081,0.6647727273,0.296315938,1
253,0,0.5957753746,0.1117485224,0.6647727273,0.296832054,1
254,0,0.713326157,0.1126287133,0.65625,0.2949108293,1
255,0,0.6015987471,0.1117485224,0.65625,0.3033591022,1
256,0,0.6653951793,0.1108683314,0.65625,0.3048909662,1
257,0,0.5765453042,0.1117485224,0.65625,0.3079586732,1
258,0,0.5550302544,0.1091079495,0.65625,0.313613781,1
259,0,0.6438228198,0.1126287133,0.65625,0.3182031206,1
260,0,0.6244208212,0.1099881404,0.65625,0.3168559897,1
261,0,0.7101057389,0.1082277585,0.6505681818,0.3200544309,1
262,0,0.5766340413,0.1108683314,0.65625,0.3185850919,1
263,0,0.6059579574,0.1082277585,0.65625,0.3184930096,1
264,0,0.6641768932,0.1099881404,0.65625,0.2940366152,1
265,0,0.6567599498,0.1082277585,0.65625,0.2941406342,1
266,0,0.6225148225,0.1073482547,0.65625,0.2944953218,1
267,0,0.606002326,0.1064680637,0.65625,0.2792977526,1
268,0,0.6338325004,0.1073482547,0.6505681818,0.2721454538,1
269,0,0.6616571288,0.1055878727,0.6477272727,0.2797212178,1
270,0,0.622718178,0.1073482547,0.6477272727,0.2768740538,1
271,0,0.6457491537,0.1047076818,0.6505681818,0.2814872666,1
272,0,0.642634112,0.1108683314,0.6477272727,0.2915020765,1
273,0,0.5128117278,0.1029472999,0.6477272727,0.2949170818,1
274,0,0.6155138344,0.1020671089,0.6477272727,0.2980063884,1
275,0,0.6544158117,0.1011869179,0.6477272727,0.3000486843,1
276,0,0.7177556171,0.1003074141,0.6477272727,0.2993535193,1
277,0,0.6201337099,0.0994272231,0.6477272727,0.2986168603,1
278,0,0.5668988422,0.1011869179,0.6477272727,0.2966547102,1
279,0,0.655567545,0.0985470322,0.6477272727,0.2988447926,1
280,0,0.5684258591,0.1011869179,0.6477272727,0.2971384268,1
281,0,0.6605201846,0.0976668412,0.6477272727,0.2907068714,1
282,0,0.4931176367,0.0985470322,0.6477272727,0.3013264692,1
283,0,0.5969844177,0.0985470322,0.6477272727,0.3003209525,1
284,0,0.6402659405,0.0985470322,0.6477272727,0.3030601187,1
285,0,0.6362025209,0.0959064593,0.6420454545,0.3038979545,1
286,0,0.6624613088,0.0976668412,0.6420454545,0.3078609067,1
287,0,0.6270330198,0.0967866502,0.6420454545,0.2988027303,1
288,0,0.6193646553,0.0967866502,0.6420454545,0.3050262477,1
289,0,0.6417689252,0.0967866502,0.6420454545,0.3056077308,1
290,0,0.6424954602,0.0932665735,0.6420454545,0.3085975657,1
291,0,0.615090484,0.0941467645,0.6420454545,0.2954468396,1
292,0,0.5843504724,0.0923863825,0.6420454545,0.2952967795,1
293,0,0.6211486405,0.0915061916,0.6363636364,0.2963238957,1
294,0,0.6353743076,0.0932665735,0.6363636364,0.2802089133,1
295,0,0.7060811418,0.0932665735,0.6363636364,0.2877164682,1
296,0,0.6500935748,0.0906260006,0.6420454545,0.2930157515,1
297,0,0.6252527316,0.0923863825,0.6420454545,0.3004249715,1
298,0,0.6225037304,0.0923863825,0.6420454545,0.3046425712,1
299,0,0.6615462074,0.0888656187,0.6306818182,0.300852984,1
300,0,0.6246334209,0.0897458096,0.6306818182,0.3116703883,1
301,0,0.5667879208,0.0888656187,0.625,0.3191000711,1
302,0,0.5859643785,0.0897458096,0.6306818182,0.3292336786,1
303,0,0.5859884118,0.0871059239,0.6306818182,0.3253900924,1
304,0,0.6110270645,0.0871059239,0.6306818182,0.3277171616,1
305,0,0.6728657343,0.084465351,0.625,0.3292399311,1
306,0,0.6721040738,0.084465351,0.625,0.3285049774,1
307,0,0.6183645138,0.0871059239,0.625,0.328643101,1
308,0,0.5972136556,0.084465351,0.6306818182,0.3276921516,1
309,0,0.619745485,0.08358516,0.6306818182,0.3285572711,1
310,0,0.6515965595,0.08358516,0.6306818182,0.3144993632,1
311,0,0.6341430803,0.0818247781,0.6306818182,0.2970639651,1
312,0,0.6786558304,0.0827049691,0.6306818182,0.2968604745,1
313,0,0.5656750089,0.0818247781,0.6306818182,0.2951069306,1
314,0,0.6622209788,0.0818247781,0.6306818182,0.2966620995,1
315,0,0.644486499,0.0800650833,0.625,0.2942935364,1
316,0,0.6209545281,0.0809445871,0.625,0.2839604171,1
317,0,0.6112415121,0.0791848923,0.625,0.2837273691,1
318,0,0.5804534349,0.0774245104,0.625,0.2707869547,1
319,0,0.6363448697,0.0765443194,0.625,0.2735085001,1
320,0,0.6136004405,0.0774245104,0.625,0.2640069642,1
321,0,0.6513211051,0.0765443194,0.6193181818,0.2707903651,1
322,0,0.57998017,0.0774245104,0.6193181818,0.2680182312,1
323,0,0.7531136563,0.0765443194,0.6193181818,0.272467742,1
324,0,0.6464294723,0.0756641285,0.6193181818,0.2724444372,1
325,0,0.6386908569,0.0756641285,0.6193181818,0.2697928062,1
326,0,0.6791161541,0.0739044337,0.6193181818,0.2723273449,1
327,0,0.7680880427,0.0721440517,0.6193181818,0.2706397366,1
328,0,0.605126047,0.0721440517,0.6193181818,0.271392311,1
329,0,0.6189542462,0.0721440517,0.6193181818,0.270948383,1
330,0,0.6422958018,0.0703836698,0.6193181818,0.2719817518,1
331,0,0.6546191672,0.0721440517,0.6136363636,0.2749971651,1
332,0,0.576290185,0.0703836698,0.6193181818,0.2741621713,1
333,0,0.6748179506,0.0695034788,0.6193181818,0.2761231846,1
334,0,0.6620897222,0.0712638608,0.6193181818,0.2697211865,1
335,0,0.6273140202,0.0712638608,0.6193181818,0.2524318697,1
336,0,0.6620065311,0.0686232879,0.6136363636,0.2616713688,1
337,0,0.6385854816,0.0677430969,0.6193181818,0.2720908864,1
338,0,0.6451871528,0.0695034788,0.6136363636,0.2715054245,1
339,0,0.5983487507,0.0677430969,0.6136363636,0.2830776769,1
340,0,0.5800873944,0.0677430969,0.6136363636,0.2861971091,1
341,0,0.6308542613,0.0668635931,0.6136363636,0.29219781,1
342,0,0.6626276909,0.0677430969,0.6136363636,0.3018323538,1
343,0,0.6918665668,0.0668635931,0.6136363636,0.299405813,1
344,0,0.7393704972,0.0659834021,0.6051136364,0.2983678969,1
345,0,0.5957143679,0.0642230202,0.6051136364,0.2997428799,1
346,0,0.4385498634,0.0668635931,0.6051136364,0.2977989188,1
347,0,0.6067418022,0.0668635931,0.6051136364,0.2994325282,1
348,0,0.6771694839,0.0659834021,0.6136363636,0.2975135772,1
349,0,0.6061428267,0.0677430969,0.6136363636,0.2963193485,1
350,0,0.6173551293,0.0677430969,0.6051136364,0.3022939025,1
351,0,0.6287134787,0.0659834021,0.6051136364,0.2993069097,1
352,0,0.573474631,0.0668635931,0.6022727273,0.3008046691,1
353,0,0.7545112657,0.0668635931,0.6022727273,0.3037655151,1
354,0,0.6221802093,0.0651032112,0.6051136364,0.3160892051,1
355,0,0.5935162755,0.0642230202,0.6051136364,0.3154031346,1
356,0,0.5654771995,0.0633428292,0.6022727273,0.3145482465,1
357,0,0.6294769871,0.0642230202,0.6022727273,0.3218801628,1
358,0,0.6697710278,0.0615824473,0.6022727273,0.3229896984,1
359,0,0.6245705651,0.0615824473,0.6022727273,0.3253008521,1
360,0,0.5619776299,0.0633428292,0.5965909091,0.3202925946,1
361,0,0.6424899142,0.0642230202,0.5965909091,0.3193257297,1
362,0,0.5979901052,0.0607022563,0.5965909091,0.3109342978,1
363,0,0.6610248769,0.0607022563,0.6022727273,0.3091477862,1
364,0,0.4641837945,0.0615824473,0.6022727273,0.3094643904,1
365,0,0.6054144426,0.0598227525,0.6022727273,0.3063620105,1
366,0,0.6768958774,0.0615824473,0.6022727273,0.2940923194,1
367,0,0.5967699701,0.0607022563,0.6022727273,0.2912713022,1
368,0,0.6760380858,0.0633428292,0.6022727273,0.3021211059,1
369,0,0.6082170566,0.0633428292,0.6022727273,0.3024433942,1
370,0,0.5698456528,0.0624626383,0.6022727273,0.3054730177,1
371,0,0.6030296329,0.0607022563,0.6022727273,0.2922046309,1
372,0,0.6362136131,0.0624626383,0.6022727273,0.2916669153,1
373,0,0.6504817997,0.0695034788,0.6022727273,0.2946982441,1
374,0,0.6268499995,0.0598227525,0.6022727273,0.2941531392,1
375,0,0.6218936628,0.0580623706,0.5965909091,0.2896570188,1
376,0,0.6575622808,0.0589425615,0.6022727273,0.2692090494,1
377,0,0.6470709672,0.0598227525,0.5965909091,0.2687384062,1
378,0,0.6236277334,0.0598227525,0.5909090909,0.2701673881,1
379,0,0.6584847773,0.0589425615,0.5909090909,0.2742053704,1
380,0,0.7314654998,0.0571821796,0.5965909091,0.2800923893,1
381,0,0.6314476907,0.0571821796,0.5909090909,0.2879137063,1
382,0,0.6336550262,0.0589425615,0.5909090909,0.2671326489,1
383,0,0.5940745805,0.0571821796,0.5909090909,0.265537123,1
384,0,0.3630290412,0.0563019886,0.5965909091,0.268570157,1
385,0,0.6903913125,0.0563019886,0.5909090909,0.2789913798,1
386,0,0.5117376395,0.0554217977,0.5965909091,0.286908758,1
387,0,0.5666196897,0.0554217977,0.5965909091,0.2877164682,1
388,0,0.6425952895,0.0536621029,0.5909090909,0.281378132,1
389,0,0.6512064856,0.0545416067,0.5852272727,0.2875112723,1
390,0,0.435144577,0.0527819119,0.5852272727,0.2949540284,1
391,0,0.5691172698,0.0615824473,0.5909090909,0.2959214617,1
392,0,0.6235500884,0.0536621029,0.5852272727,0.2729770371,1
393,0,0.6803196511,0.0527819119,0.5852272727,0.2743531569,1
394,0,0.6579856311,0.0536621029,0.5852272727,0.2918596062,1
395,0,0.5863304191,0.0519017209,0.5852272727,0.292761104,1
396,0,0.6282087864,0.0527819119,0.5852272727,0.2963182116,1
397,0,0.5935292167,0.0536621029,0.5852272727,0.2996985439,1
398,0,0.6638034575,0.0519017209,0.5852272727,0.3061585198,1
399,0,0.6744130876,0.0545416067,0.5852272727,0.3073163703,1
400,0,0.6885611097,0.0545416067,0.5852272727,0.3111417673,1
401,0,0.4575488469,0.0519017209,0.5852272727,0.3104113609,1
402,0,0.5713578817,0.0519017209,0.5852272727,0.3123973843,1
403,0,0.6228457376,0.0536621029,0.5852272727,0.3063756523,1
404,0,0.6067011306,0.0519017209,0.5852272727,0.2982940036,1
405,0,0.6610082387,0.0536621029,0.5852272727,0.3000384529,1
406,0,0.6493319143,0.0545416067,0.5852272727,0.300798985,1
407,0,0.6411939831,0.0536621029,0.5795454545,0.2896280299,1
408,0,0.637415261,0.0536621029,0.5795454545,0.2913883946,1
409,0,0.7239413332,0.0536621029,0.5795454545,0.2927832719,1
410,0,0.6239715896,0.0519017209,0.5795454545,0.2904709814,1
411,0,0.5911721373,0.0527819119,0.5795454545,0.2926735689,1
412,0,0.6034141608,0.05102153,0.5795454545,0.2638711142,1
413,0,0.6066567621,0.0527819119,0.5738636364,0.2689015398,1
414,0,0.6281052601,0.050141339,0.5738636364,0.2725751715,1
415,0,0.6439744116,0.0527819119,0.5795454545,0.2733993655,1
416,0,0.6050373099,0.0519017209,0.5795454545,0.2651648146,1
417,0,0.6892155458,0.050141339,0.5795454545,0.2539148505,1
418,0,0.4553119331,0.0519017209,0.5738636364,0.2757196137,1
419,0,0.6678188115,0.050141339,0.5795454545,0.2634118392,1
420,0,0.5838587213,0.05102153,0.5795454545,0.2719504892,1
421,0,0.6505742338,0.0519017209,0.5738636364,0.2860112392,1
422,0,0.6123913975,0.0519017209,0.5738636364,0.279933803,1
423,0,0.6504374311,0.0492611481,0.5795454545,0.2722000211,1
424,0,0.639827801,0.0492611481,0.5738636364,0.283627329,1
425,0,0.6002381112,0.0475007661,0.5738636364,0.2835699196,1
426,0,0.6126964313,0.0492611481,0.5738636364,0.2871662476,1
427,0,0.577654518,0.0483809571,0.5738636364,0.2860226074,1
428,0,0.634202238,0.0492611481,0.5738636364,0.2902635119,1
429,0,0.4321774301,0.0475007661,0.5738636364,0.2913645214,1
430,0,0.5540504482,0.0475007661,0.5738636364,0.2911161264,1
431,0,0.5525714968,0.0571821796,0.5681818182,0.2884554007,1
432,0,0.6516021056,0.0475007661,0.5681818182,0.2913838473,1
433,0,0.7300956208,0.0457410713,0.5738636364,0.2927696301,1
434,0,0.6052961261,0.0483809571,0.5738636364,0.2949608494,1
435,0,0.480454112,0.0466212623,0.5738636364,0.2987720362,1
436,0,0.6691794475,0.0457410713,0.5681818182,0.2928418181,1
437,0,0.498447409,0.0483809571,0.5738636364,0.2984491795,1
438,0,0.593638289,0.0483809571,0.5738636364,0.2851267937,1
439,0,0.6724738125,0.0475007661,0.5738636364,0.2859964605,1
440,0,0.6299724363,0.0457410713,0.5738636364,0.2910985057,1
441,0,0.701760754,0.0457410713,0.5681818182,0.2939632904,1
442,0,0.5868166241,0.0448608804,0.5681818182,0.2940610569,1
443,0,0.6625334077,0.0448608804,0.5738636364,0.2954593446,1
444,0,0.6396004122,0.0457410713,0.5596590909,0.3002476277,1
445,0,0.6344758444,0.0466212623,0.5596590909,0.2992148273,1
446,0,0.6107053925,0.0457410713,0.5738636364,0.2994973269,1
447,0,0.6389718573,0.0439806894,0.5738636364,0.3006983765,1
448,0,0.6502044962,0.0466212623,0.5738636364,0.2973089497,1
449,0,0.569128362,0.0439806894,0.5681818182,0.2911473889,1
450,0,0.6482411878,0.0439806894,0.5681818182,0.2919232681,1
451,0,0.6494576259,0.0457410713,0.5596590909,0.2850904155,1
452,0,0.6699540481,0.0439806894,0.5681818182,0.2803976253,1
453,0,0.7174487343,0.0439806894,0.5596590909,0.2831811274,1
454,0,0.6073111982,0.0466212623,0.5596590909,0.2866921939,1
455,0,0.5281355166,0.0475007661,0.5596590909,0.288541799,1
456,0,0.6280091279,0.0448608804,0.5681818182,0.2823609123,1
457,0,0.6537687695,0.0457410713,0.5681818182,0.283989406,1
458,0,0.6289778409,0.0466212623,0.5681818182,0.2820789811,1
459,0,0.5880497005,0.0448608804,0.5681818182,0.2816981466,1
460,0,0.6542753109,0.0457410713,0.5738636364,0.2844344707,1
461,0,0.6451797577,0.0431004984,0.5738636364,0.2714639306,1
462,0,0.6876016398,0.0448608804,0.5738636364,0.2813815424,1
463,0,0.68432761,0.0439806894,0.5681818182,0.2850625634,1
464,0,0.6738751189,0.0439806894,0.5681818182,0.2883826443,1
465,0,0.5261278396,0.0457410713,0.5596590909,0.291055875,1
466,0,0.6238126027,0.0457410713,0.5596590909,0.291882911,1
467,0,0.6554899,0.0431004984,0.5596590909,0.2792647848,1
468,0,0.6410941538,0.0448608804,0.5681818182,0.2824262794,1
469,0,0.6788388507,0.0448608804,0.5681818182,0.2925945599,1
470,0,0.6560759343,0.0439806894,0.5681818182,0.2916191689,1
471,0,0.554512621,0.0448608804,0.5596590909,0.2884423273,1
472,0,0.6180446909,0.0439806894,0.5596590909,0.2900463794,1
473,0,0.6386298501,0.0422203075,0.5596590909,0.2952973479,1
474,0,0.635246748,0.0439806894,0.5596590909,0.2973100865,1
475,0,0.6752560901,0.0422203075,0.5596590909,0.2909234355,1
476,0,0.6112710915,0.0457410713,0.5568181818,0.2615741708,1
477,0,0.5053041994,0.0439806894,0.5568181818,0.2604453092,1
478,0,0.6531106364,0.0448608804,0.5568181818,0.2697808695,1
479,0,0.7233016862,0.0448608804,0.5568181818,0.2649891761,1
480,0,0.5994246881,0.0439806894,0.5568181818,0.2603367429,1
481,0,0.633721579,0.0422203075,0.5568181818,0.2532770949,1
482,0,0.6208916723,0.0439806894,0.5596590909,0.2403190597,1
483,0,0.6448359014,0.0422203075,0.5568181818,0.23005756,1
484,0,0.6704199179,0.0439806894,0.5568181818,0.2237646966,1
485,0,0.6365537712,0.0395804217,0.5568181818,0.2160115887,1
972,2,0.6533907129,0.0915474183,0.2755681818,0.2899940857,1
973,2,0.5371118294,0.1293983781,0.2755681818,0.2817186094,1
974,2,0.6207252902,0.0977094422,0.2755681818,0.2856682039,1
975,2,0.3334296708,0.0977094422,0.2727272727,0.2889865796,1
976,2,0.7035133118,0.0985896331,0.2727272727,0.2878315711,1
977,2,0.7341026556,0.1073922299,0.2755681818,0.2953018952,1
978,2,0.8714205521,0.1082724208,0.2755681818,0.2994657802,1
979,2,0.6838996387,0.0977094422,0.2755681818,0.3032727039,1
980,2,0.2446463485,0.1065120389,0.2840909091,0.3098992238,1
981,2,0.8884497571,0.1091526118,0.2840909091,0.3094075494,1
982,2,0.6383747309,0.1100328027,0.2840909091,0.3096809545,1
983,2,0.5743971275,0.1065120389,0.2840909091,0.3086464489,1
984,2,0.8533570052,0.1056311608,0.2840909091,0.302616475,1
985,2,0.75469521,0.1065120389,0.2840909091,0.304171928,1
986,2,0.4670011976,0.0985896331,0.2840909091,0.2922390197,1
987,2,0.5196250737,0.1117931847,0.2897727273,0.2697572805,1
988,2,0.4927765534,0.1117931847,0.2897727273,0.2801534933,1
989,2,0.9130105238,0.1144337576,0.2897727273,0.2916535577,1
990,2,0.724729799,0.1117931847,0.2840909091,0.3218039959,1
991,2,0.3934464569,0.1170750176,0.2840909091,0.3265337327,1
992,2,0.5331547091,0.1197155904,0.2755681818,0.3464246606,1
993,2,0.5655409793,0.1188353995,0.2755681818,0.3413885509,1
994,2,0.8173214216,0.1065120389,0.2840909091,0.3693582854,1
995,2,0.4834841148,0.1038707789,0.2840909091,0.3798141812,1
996,2,0.527123359,0.1038707789,0.2840909091,0.3851106225,1
997,2,0.1222381347,0.1038707789,0.2755681818,0.3888655367,1
998,2,0.7004047401,0.1056311608,0.2755681818,0.3834281299,1
999,2,0.671958952,0.1047509699,0.2755681818,0.384621506,1
1000,2,0.6400108213,0.102110397,0.2840909091,0.3855571083,1
1001,2,0.5531094655,0.101230206,0.2840909091,0.3875718363,1
1002,2,0.7077200052,0.0994698241,0.2840909091,0.3762809467,1
1003,2,0.6925071378,0.0977094422,0.2840909091,0.3799739043,1
1004,2,0.8169470619,0.0985896331,0.2840909091,0.3716961543,1
1005,2,0.6149536814,0.0977094422,0.2840909091,0.3686275948,1
1006,2,0.7375689488,0.0994698241,0.2755681818,0.3646427588,1
1007,2,0.5960360399,0.1065120389,0.2755681818,0.335633403,1
1008,2,0.4217674585,0.101230206,0.2755681818,0.3210946206,1
1009,2,0.8415438781,0.101230206,0.2755681818,0.3074530728,1
1010,2,0.7108868106,0.0228870264,0.2755681818,0.3033360816,1
1011,2,0.5199495187,0.0941879912,0.2755681818,0.3080382506,1
1012,2,0.2473602253,0.0950681822,0.2727272727,0.298175206,1
1013,2,0.7733133638,0.0933078002,0.2670454545,0.293796178,1
1014,2,0.6749843327,0.0941879912,0.2670454545,0.2870485868,1
1015,2,0.4302326089,0.0977094422,0.2670454545,0.2923228601,1
1016,2,0.5354979233,0.0880259674,0.2727272727,0.2888476034,1
1017,2,0.8354182449,0.0924276093,0.2727272727,0.283334598,1
1018,2,0.6088474594,0.0941879912,0.2727272727,0.2859839555,1
1019,2,0.4403708231,0.0933078002,0.2727272727,0.2906886823,1
1020,2,0.750837919,0.0959483731,0.2727272727,0.2826098757,1
1021,2,0.5842007285,0.100350015,0.2727272727,0.2857102662,1
1022,2,0.5346872732,0.1047509699,0.2670454545,0.2916444632,1
1023,2,0.1289377861,0.1038707789,0.2670454545,0.2980839763,1
1024,2,0.5886847254,0.0985896331,0.2613636364,0.2842213171,1
1025,2,0.486717473,0.0994698241,0.2613636364,0.2846777501,1
1026,2,0.5750635798,0.100350015,0.2613636364,0.2796365248,1
1027,2,0.434501233,0.0994698241,0.2613636364,0.2860612592,1
1028,2,0.8413072462,0.100350015,0.2556818182,0.2787492373,1
1029,2,0.7373110566,0.0985896331,0.2556818182,0.2806403362,1
1030,2,0.6004285266,0.0959483731,0.2556818182,0.2810825589,1
1031,2,0.5664366694,0.0977094422,0.2556818182,0.2838984604,1
1032,2,0.9797888921,0.102110397,0.2613636364,0.2931118127,1
1033,2,0.4989215979,0.1029905879,0.2613636364,0.3062659492,1
1034,2,0.7469279403,0.101230206,0.2556818182,0.3042159798,1
1035,2,0.7064277711,0.0994698241,0.2556818182,0.3009484768,1
1036,2,0.6764706792,0.0977094422,0.2556818182,0.3038914178,1
1037,2,0.5468950951,0.0933078002,0.2556818182,0.3044044076,1
1038,2,0.6484380732,0.0950681822,0.2556818182,0.2986140183,1
1039,2,0.4960265499,0.0950681822,0.2556818182,0.3053144314,1
1040,2,0.5542722909,0.1029905879,0.25,0.2901435774,1
1041,2,0.7280685325,0.0994698241,0.2556818182,0.2928889961,1
1042,2,0.5373336721,0.0985896331,0.2556818182,0.2987430473,1
1043,2,0.756225925,0.101230206,0.2556818182,0.2962761493,1
1044,2,0.5504029838,0.1065120389,0.25,0.3014776662,1
1045,2,0.7683329938,0.1082724208,0.25,0.2989340329,1
1046,2,0.6944038934,0.1267578053,0.25,0.3034773314,1
1047,2,0.819204312,0.1285181872,0.25,0.3048409462,1
1048,2,0.650029795,0.1135535666,0.2556818182,0.3230050455,1
1049,2,0.5990808318,0.1205957814,0.2443181818,0.3295266938,1
1050,2,0.5794505204,0.1205957814,0.2443181818,0.3258152629,1
1051,2,0.6939851652,0.1179552085,0.2443181818,0.3305540943,1
1052,2,0.6651483792,0.1135535666,0.2443181818,0.3210622212,1
1053,2,0.5254817226,0.1170750176,0.25,0.3149907534,1
1054,2,0.4894979027,0.1126733756,0.2443181818,0.3090795771,1
1055,2,0.726740249,0.1117931847,0.25,0.2867146461,1
1056,2,0.7411350712,0.1161948266,0.2443181818,0.2773617493,1
1057,2,0.4900617526,0.1170750176,0.2443181818,0.2800145172,1
1058,2,0.5813750064,0.1144337576,0.2386363636,0.2788407512,1
1059,2,0.7116854446,0.1170750176,0.2386363636,0.2737597372,1
1060,2,0.5427244512,0.1153146356,0.2386363636,0.2793739195,1
1061,2,0.6894484807,0.1135535666,0.2386363636,0.2879154115,1
1062,2,0.5764334589,0.1144337576,0.2386363636,0.2938223248,1
1063,2,0.6612337785,0.1144337576,0.2386363636,0.2974050109,1
1064,2,0.5616254545,0.1126733756,0.2386363636,0.307333991,1
1065,2,0.5203654739,0.1223561633,0.2386363636,0.3111645037,1
1066,2,0.4178131112,0.1223561633,0.2386363636,0.313640212,1
1067,2,0.6964115704,0.1258776143,0.2301136364,0.3208399731,1
1068,2,0.5221790385,0.1267578053,0.2301136364,0.3254301653,1
1069,2,0.7460738457,0.1205957814,0.2386363636,0.3222530395,1
1070,2,0.5472750009,0.1205957814,0.2386363636,0.3230516551,1
1071,2,0.5765443802,0.1197155904,0.2386363636,0.3226932728,1
1072,2,0.7520552811,0.1161948266,0.2386363636,0.3220162969,1
1073,2,0.6191437365,0.1161948266,0.2386363636,0.3242833988,1
1074,2,0.6566323902,0.1188353995,0.2301136364,0.3283770852,1
1075,2,0.5615339444,0.1153146356,0.2386363636,0.3228220176,1
1076,2,0.7537773356,0.1144337576,0.2386363636,0.3123695322,1
1077,2,0.6822164067,0.1179552085,0.2301136364,0.3376324998,1
1078,2,0.2031636011,0.1117931847,0.2386363636,0.3436189905,1
1079,2,0.5463460343,0.1109129937,0.2386363636,0.3410520524,1
1080,2,0.7393381448,0.1100328027,0.2386363636,0.3497228577,1
1081,2,0.6833478048,0.1135535666,0.2301136364,0.349731668,1
1082,2,0.5091014077,0.1126733756,0.2301136364,0.3495261879,1
1083,2,0.7311743312,0.1214759724,0.2386363636,0.333126148,1
1084,2,0.4780850165,0.1197155904,0.2386363636,0.322328638,1
1085,2,0.6737586514,0.1153146356,0.2301136364,0.3085083254,1
1086,2,0.5376969396,0.1188353995,0.2301136364,0.2938331246,1
1087,2,0.7229763172,0.1205957814,0.2301136364,0.291656684,1
1088,2,0.5121572917,0.1197155904,0.2301136364,0.2872094467,1
1089,2,0.6095823135,0.1153146356,0.2301136364,0.2777962985,1
1090,2,0.4819589458,0.1161948266,0.2301136364,0.2861209422,1
1091,2,0.7550778887,0.1135535666,0.2244318182,0.2937552525,1
1092,2,0.7059452631,0.1126733756,0.2244318182,0.2990161681,1
1093,2,0.6753697845,0.1144337576,0.2244318182,0.3046425712,1
1094,2,0.5233353939,0.1135535666,0.2244318182,0.3028014923,1
1095,2,0.5758455755,0.1126733756,0.2244318182,0.3060391538,1
1096,2,0.3024659673,0.1170750176,0.2301136364,0.3067650129,1
1097,2,0.6459811646,0.1153146356,0.2301136364,0.3101032829,1
1098,2,0.6086394818,0.1153146356,0.2244318182,0.3071367528,1
1099,2,0.6941681855,0.1144337576,0.2244318182,0.3098628456,1
1100,2,0.512980883,0.1197155904,0.2244318182,0.3030015725,1
1101,2,0.5118263766,0.1135535666,0.2244318182,0.2678101932,1
1102,2,0.7065276004,0.1135535666,0.2244318182,0.2697768907,1
1103,2,0.6184172015,0.1126733756,0.2244318182,0.2632762735,1
1104,2,0.6819751527,0.1135535666,0.2244318182,0.2623077035,1
1105,2,0.4571513789,0.1161948266,0.2244318182,0.25281242,1
1106,2,0.6754862519,0.1153146356,0.2244318182,0.2622866723,1
1107,2,0.5389891737,0.1170750176,0.2244318182,0.267220184,1
1108,2,0.7310994592,0.1170750176,0.2244318182,0.2716009173,1
1109,2,0.8567438043,0.1135535666,0.2244318182,0.2812132932,1
1110,2,0.6868335092,0.1153146356,0.2301136364,0.3040855297,1
1111,2,0.3676960583,0.1135535666,0.2301136364,0.3037180529,1
1112,2,0.6597160046,0.1153146356,0.2301136364,0.3097278483,1
1113,2,0.6487847025,0.1144337576,0.2301136364,0.3076429216,1
1114,2,0.737668778,0.1091526118,0.2215909091,0.288833109,1
1115,2,0.6478862394,0.1135535666,0.2215909091,0.2877045316,1
1116,2,0.7668799237,0.1117931847,0.2244318182,0.2861260579,1
1117,2,0.7191144041,0.1082724208,0.2244318182,0.293978069,1
1118,2,0.4889026242,0.1091526118,0.2244318182,0.2959663661,1
1119,2,0.430003371,0.1073922299,0.2244318182,0.3182710456,1
1120,2,0.7121762717,0.1117931847,0.2244318182,0.3322883122,1
1121,2,0.7305448523,0.1073922299,0.2215909091,0.3519311292,1
1122,2,0.7614558681,0.1082724208,0.2215909091,0.3394121905,1
1123,2,0.8003310391,0.1091526118,0.2215909091,0.3292336786,1
1124,2,0.7108452151,0.1100328027,0.2215909091,0.2929626052,1
1125,2,0.0,0.1065120389,0.2215909091,0.2724762682,1
1126,2,0.828595656,0.1065120389,0.2215909091,0.2656382999,1
1127,2,0.5398820908,0.1100328027,0.2159090909,0.2557823605,1
1128,2,0.7037323816,0.1100328027,0.2159090909,0.2492544597,1
1129,2,0.577650821,0.1065120389,0.2159090909,0.2553353063,1
1130,2,0.5177754596,0.1073922299,0.2159090909,0.2524182279,1
1131,2,0.5842062746,0.1109129937,0.2159090909,0.2626291391,1
1132,2,0.6976566629,0.1082724208,0.2159090909,0.2735977405,1
1133,2,0.2353807162,0.1100328027,0.2159090909,0.2857986539,1
1134,2,0.7130525506,0.1056311608,0.2159090909,0.2992728051,1
1135,2,0.7202236179,0.1073922299,0.2215909091,0.3081525009,1
1136,2,0.5998166099,0.1056311608,0.2215909091,0.3130246244,1
1137,2,0.499894933,0.1047509699,0.2215909091,0.3118841104,1
1138,2,0.7389249627,0.1073922299,0.2215909091,0.3166905825,1
1139,2,0.6783813,0.1091526118,0.2215909091,0.3133838593,1
1140,2,0.7791090059,0.1073922299,0.2159090909,0.311697672,1
1141,2,0.7359494966,0.1082724208,0.2159090909,0.304112245,1
1142,2,0.7458076343,0.1135535666,0.2159090909,0.2869837881,1
1143,2,0.7080943649,0.1100328027,0.2159090909,0.2815065926,1
1144,2,0.5749055168,0.1082724208,0.2159090909,0.2775214724,1
1145,2,0.7398927517,0.1065120389,0.2159090909,0.2742320856,1
1146,2,0.3837131057,0.1065120389,0.2159090909,0.2649505242,1
1147,2,0.5065724002,0.1065120389,0.2159090909,0.2647206025,1
1148,2,0.5589827526,0.1082724208,0.2159090909,0.2671713008,1
1149,2,0.750039285,0.1073922299,0.2102272727,0.2704848449,1
1150,2,0.7470028122,0.1091526118,0.2102272727,0.272161085,1
1151,2,0.7023153609,0.1100328027,0.2102272727,0.2732467475,1
1152,2,0.6029298037,0.1091526118,0.2159090909,0.2838910711,1
1153,2,0.6653933303,0.1117931847,0.2159090909,0.2898508465,1
1154,2,0.7663225437,0.1082724208,0.2159090909,0.2930887921,1
1155,2,0.585839592,0.1073922299,0.2159090909,0.29203695,1
1156,2,0.7341414781,0.1091526118,0.2159090909,0.2884775687,1
1157,2,0.4002292993,0.1091526118,0.2159090909,0.2979427265,1
1158,2,0.5722628149,0.1109129937,0.2159090909,0.3218909625,1
1159,2,0.5818769256,0.1126733756,0.2159090909,0.3199703063,1
1160,2,0.6579495816,0.1100328027,0.2159090909,0.3184844834,1
1161,2,0.3781753558,0.1091526118,0.2159090909,0.3137757777,1
1162,2,0.7238285627,0.1091526118,0.2045454545,0.3145178366,1
1163,2,0.7257253183,0.1091526118,0.2045454545,0.305933998,1
1164,2,0.5930208274,0.1100328027,0.2159090909,0.302923132,1
1165,2,0.739834518,0.1100328027,0.2159090909,0.2991213239,1
1166,2,0.4752176988,0.1091526118,0.2159090909,0.2962966121,1
1167,2,0.725295498,0.1135535666,0.2045454545,0.2735556781,1
1168,2,0.7014279899,0.1100328027,0.2045454545,0.2703083537,1
1169,2,0.5118300736,0.1109129937,0.2159090909,0.2699405927,1
1170,2,0.7120579552,0.1100328027,0.2159090909,0.2718629542,1
1171,2,0.6486571429,0.1109129937,0.2045454545,0.2832391052,1
1172,2,0.5110647161,0.1091526118,0.2102272727,0.2848894827,1
1173,2,0.5425192467,0.1100328027,0.2102272727,0.2963040014,1
1174,2,0.7179136801,0.1117931847,0.2102272727,0.3005795789,1
1175,2,0.6879649073,0.1082724208,0.2102272727,0.3047710318,1
1176,2,0.5481272464,0.1082724208,0.2045454545,0.3091176605,1
1177,2,0.4737507636,0.1091526118,0.2045454545,0.3183139605,1
1178,2,0.5732139658,0.1091526118,0.2045454545,0.3216653039,1
1179,2,0.7375292023,0.1109129937,0.2045454545,0.3245550986,1
1180,2,0.6989849465,0.1100328027,0.2102272727,0.3190824504,1
1181,2,0.7104791746,0.1126733756,0.2045454545,0.3230888859,1
1182,2,0.7370282071,0.1117931847,0.2045454545,0.303748747,1
1183,2,0.6638949676,0.1117931847,0.2045454545,0.2923356493,1
1184,2,0.523665385,0.1126733756,0.2045454545,0.2805871899,1
1185,2,0.6536874276,0.1117931847,0.2045454545,0.2719766361,1
1186,2,0.4491114279,0.1117931847,0.2045454545,0.2575765456,1
1187,2,0.6655449232,0.1135535666,0.2045454545,0.258964602,1
1188,2,0.5482871585,0.1117931847,0.2045454545,0.2582719948,1
1189,2,0.5801983158,0.1109129937,0.2045454545,0.2638364413,1
1190,2,0.7032276893,0.1109129937,0.2045454545,0.2661635104,1
1191,2,0.5077509398,0.1135535666,0.2045454545,0.2748238001,1
1192,2,0.7038072535,0.1144337576,0.2045454545,0.2799275505,1
1193,2,0.5491079767,0.1126733756,0.2045454545,0.2868774955,1
1194,2,0.5440250044,0.1144337576,0.2045454545,0.2970224712,1
1195,2,0.6230564883,0.1135535666,0.2045454545,0.3201590183,1
1196,2,0.8274540897,0.1135535666,0.2045454545,0.3261668243,1
1197,2,0.1929061464,0.1144337576,0.1988636364,0.3244993945,1
1198,2,0.8369332457,0.1135535666,0.2045454545,0.3213867832,1
1199,2,0.6304216679,0.1126733756,0.2045454545,0.3199509804,1
1200,2,0.6711464529,0.1117931847,0.2045454545,0.2887384687,1
1201,2,0.5663035638,0.1117931847,0.1988636364,0.2820678971,1
1202,2,0.5116498264,0.1109129937,0.1988636364,0.2824538473,1
1203,2,0.5403729179,0.1126733756,0.1988636364,0.2743645251,1
1204,2,0.5972395369,0.1100328027,0.2045454545,0.297244151,1
1205,2,0.7663752314,0.1126733756,0.2045454545,0.2959598294,1
1206,2,0.5040738961,0.1126733756,0.1988636364,0.2990414624,1
1207,2,0.8090605518,0.1135535666,0.1988636364,0.2984821472,1
1208,2,0.7612340254,0.1153146356,0.2045454545,0.3053383046,1
1209,2,0.6609056364,0.1161948266,0.2045454545,0.3053525149,1
1210,2,0.5409192057,0.1135535666,0.1931818182,0.3044839849,1
1211,2,0.7267846175,0.1109129937,0.1988636364,0.3070941221,1
1212,2,0.5161227311,0.1117931847,0.1988636364,0.30643903,1
1213,2,0.5932167878,0.1126733756,0.1931818182,0.3054502813,1
1214,2,0.7264934489,0.1091526118,0.1988636364,0.3072799921,1
1215,2,0.6225407038,0.1109129937,0.1988636364,0.3096491236,1
1216,2,0.7457466276,0.1109129937,0.1988636364,0.3049102922,1
1217,2,0.5670578291,0.1135535666,0.1931818182,0.3015677591,1
1218,2,0.8705692305,0.1109129937,0.1931818182,0.300667114,1
1219,2,0.267819674,0.1117931847,0.1988636364,0.290471834,1
1220,2,0.8013182394,0.1109129937,0.1988636364,0.2894654647,1
1221,2,0.6711131765,0.1117931847,0.1931818182,0.2876846372,1
1222,2,0.6011744728,0.1109129937,0.1931818182,0.2810800011,1
1223,2,0.724408127,0.1109129937,0.1931818182,0.282391038,1
1224,2,0.7268373052,0.1109129937,0.1988636364,0.2735022476,1
1225,2,0.6771546947,0.1109129937,0.1988636364,0.2684269177,1
1226,2,0.703524404,0.1126733756,0.1931818182,0.2739961956,1
1227,2,0.532267338,0.1126733756,0.1931818182,0.2688049102,1
1228,2,0.7484974778,0.1126733756,0.1988636364,0.2716174012,1
1229,2,0.6638256418,0.1091526118,0.1988636364,0.2694057192,1
1230,2,0.5683694745,0.1082724208,0.1988636364,0.2702373025,1
1231,2,0.5793617833,0.1117931847,0.1988636364,0.2811291685,1
1232,2,0.7016304214,0.1100328027,0.1988636364,0.2867530138,1
1233,2,0.5913939801,0.1082724208,0.1988636364,0.285952693,1
1234,2,0.5901544337,0.1100328027,0.1988636364,0.2924544469,1
1235,2,0.6688864298,0.1100328027,0.1931818182,0.2957407074,1
1236,2,0.5368262068,0.1091526118,0.1931818182,0.3072117829,1
1237,2,0.6875073566,0.1100328027,0.1931818182,0.3053070421,1
1238,2,0.660309434,0.1117931847,0.1931818182,0.3091341444,1
1239,2,0.545356061,0.1135535666,0.1875,0.3075363448,1
1240,2,0.6804333455,0.1109129937,0.1875,0.3082678881,1
1241,2,0.6071475892,0.1091526118,0.1875,0.311191219,1
1242,2,0.6114430197,0.1082724208,0.1875,0.3106427037,1
1243,2,0.4914233126,0.1100328027,0.1988636364,0.3143703342,1
1244,2,0.5156818186,0.1109129937,0.1988636364,0.3097662159,1
1245,2,0.5670217797,0.1109129937,0.1875,0.3131283591,1
1246,2,0.715814493,0.1117931847,0.1931818182,0.3084105589,1
1247,2,0.5929690637,0.1153146356,0.1931818182,0.3085486824,1
1248,2,0.566000379,0.1082724208,0.1988636364,0.2958742837,1
1249,2,0.7254202846,0.1082724208,0.1931818182,0.295812327,1
1250,2,0.8464909717,0.1126733756,0.1988636364,0.3130294558,1
1251,2,0.8181117364,0.1100328027,0.1931818182,0.3271783093,1
1252,2,0.7295058884,0.1117931847,0.1931818182,0.3305228317,1
1253,2,0.7915904343,0.1144337576,0.1931818182,0.3344562266,1
1254,2,0.4054398312,0.1100328027,0.1875,0.3357794843,1
1255,2,0.7328039515,0.1117931847,0.1988636364,0.3160687423,1
1256,2,0.6230758995,0.1117931847,0.1931818182,0.3121262529,1
1257,2,0.4147572272,0.1117931847,0.1931818182,0.3041014452,1
1258,2,0.7515006742,0.1100328027,0.1931818182,0.3024087212,1
1259,2,0.6834032655,0.1126733756,0.1988636364,0.2902191759,1
1260,2,0.5329495045,0.1126733756,0.1988636364,0.2788560983,1
1261,2,0.7317372572,0.1109129937,0.1988636364,0.277393296,1
1262,2,0.5341751858,0.1091526118,0.1931818182,0.2698161109,1
1263,2,0.4972744154,0.1117931847,0.1931818182,0.2675279778,1
1264,2,0.744174317,0.1126733756,0.1931818182,0.2678579396,1
1265,2,0.6511556471,0.1082724208,0.1931818182,0.2695887471,1
1266,2,0.6772942704,0.1117931847,0.1875,0.2693329627,1
1267,2,0.7185690402,0.1126733756,0.1931818182,0.2730725299,1
1268,2,0.6069562498,0.1091526118,0.1931818182,0.2705604434,1
1269,2,0.7819790966,0.1109129937,0.1931818182,0.272924175,1
1270,2,0.5526352766,0.1117931847,0.1931818182,0.277278193,1
1271,2,0.2162689623,0.1126733756,0.1875,0.2740155216,1
1272,2,0.7476766596,0.1100328027,0.1875,0.2777448574,1
1273,2,0.6604869082,0.1091526118,0.1875,0.2786713651,1
1274,2,0.5353121299,0.1082724208,0.1875,0.283334598,1
1275,2,0.6394589874,0.1144337576,0.1875,0.2992628579,1
1276,2,0.6148233488,0.1117931847,0.1875,0.2995808831,1
1277,2,0.6388877423,0.1126733756,0.1875,0.3010615903,1
1278,2,0.6478307787,0.1117931847,0.1875,0.3074988298,1
1279,2,0.5013119537,0.1091526118,0.1931818182,0.3089681688,1
1280,2,0.6365445282,0.1109129937,0.1931818182,0.3109871599,1
1281,2,0.6212235124,0.1100328027,0.1931818182,0.3157527066,1
1282,2,0.7406137407,0.1135535666,0.1875,0.3158345575,1
1283,2,0.6803695657,0.1144337576,0.1875,0.3155145429,1
1284,2,0.5802759607,0.1161948266,0.1875,0.3168386532,1
1285,2,0.6030407251,0.1109129937,0.1875,0.3183821697,1
1286,2,0.5922979893,0.1117931847,0.1875,0.3206569452,1
1287,2,0.7694810301,0.1117931847,0.1875,0.3217079346,1
1288,2,0.6442849915,0.1109129937,0.1875,0.3206461454,1
1289,2,0.7149770365,0.1109129937,0.1931818182,0.3228603852,1
1290,2,0.4564886237,0.1109129937,0.1931818182,0.3198009202,1
1291,2,0.4954442126,0.1117931847,0.1931818182,0.3210667685,1
1292,2,0.5646656243,0.1100328027,0.1789772727,0.3265075859,1
1293,2,0.5928193198,0.1109129937,0.1875,0.3261392564,1
1294,2,0.4370995663,0.1135535666,0.1875,0.3198969814,1
1295,2,0.7464324911,0.1126733756,0.1789772727,0.3222487764,1
1296,2,0.6919164815,0.1117931847,0.1789772727,0.3314095508,1
1297,2,0.5250629944,0.1117931847,0.1789772727,0.3285905231,1
1298,2,0.7288625444,0.1144337576,0.1789772727,0.3138030614,1
1299,2,0.6515771483,0.1144337576,0.1875,0.3212679855,1
1300,2,0.7222118836,0.1188353995,0.1875,0.3243621236,1
1301,2,0.4061293928,0.1135535666,0.1931818182,0.305874315,1
1302,2,0.6023668777,0.1223561633,0.1789772727,0.3030629607,1
1303,2,0.676531686,0.1117931847,0.1789772727,0.3004158769,1
1304,2,0.6761434611,0.1135535666,0.1789772727,0.3046329082,1
1305,2,0.7565309588,0.1100328027,0.1875,0.2936864749,1
1306,2,0.7195044779,0.1135535666,0.1789772727,0.2963932417,1
1307,2,0.6537844838,0.1117931847,0.1789772727,0.2925564765,1
1308,2,0.6449163194,0.1126733756,0.1875,0.2994245705,1
1309,2,0.691874886,0.1179552085,0.1875,0.2962971805,1
1310,2,0.6930386365,0.1135535666,0.1875,0.298445769,1
1311,2,0.5303789015,0.1117931847,0.1789772727,0.2978426864,1
1312,2,0.2569438326,0.1126733756,0.1789772727,0.2945402262,1
1313,2,0.7616499806,0.1126733756,0.1789772727,0.2969593778,1
1314,2,0.6119283007,0.1135535666,0.1789772727,0.304879598,1
1315,2,0.5795863991,0.1126733756,0.1789772727,0.3036097708,1
1316,2,0.6168088415,0.1135535666,0.1789772727,0.3075320818,1
1317,2,0.6691775984,0.1144337576,0.1789772727,0.3032454203,1
1318,2,0.6786946529,0.1161948266,0.1789772727,0.3044805745,1
1319,2,0.7205092404,0.1144337576,0.1789772727,0.3028304812,1
1320,2,0.6125550065,0.1144337576,0.1789772727,0.3043339248,1
1321,2,0.6620869491,0.1144337576,0.1875,0.3066089845,1
1322,2,0.7109006758,0.1214759724,0.1875,0.3094211913,1
1323,2,0.656055599,0.1117931847,0.1875,0.3057958744,1
1324,2,0.4438851818,0.1117931847,0.1875,0.3021563473,1
1325,2,0.7461542637,0.1144337576,0.1875,0.298046177,1
1326,2,0.6960649411,0.1117931847,0.1875,0.3050251109,1
1327,2,0.6065929823,0.1135535666,0.1761363636,0.3056938449,1
1328,2,0.6245446838,0.1135535666,0.1761363636,0.3087555836,1
1329,2,0.7227082568,0.1117931847,0.1761363636,0.3077375618,1
1330,2,0.7113277231,0.1135535666,0.1789772727,0.3084031696,1
1331,2,0.5886126265,0.1144337576,0.1789772727,0.3077102782,1
1332,2,0.7836687986,0.1144337576,0.1789772727,0.3091159553,1
1333,2,0.3760151619,0.1126733756,0.1789772727,0.3069699246,1
1334,2,0.6719783633,0.1126733756,0.1789772727,0.3081047545,1
1335,2,0.6903691282,0.1135535666,0.1789772727,0.30365297,1
1336,2,0.6047794177,0.1126733756,0.1789772727,0.3032079052,1
1337,2,0.5363436988,0.1109129937,0.1789772727,0.3025698654,1
1338,2,0.6845069332,0.1100328027,0.1789772727,0.3005818526,1
1339,2,0.6960510759,0.1144337576,0.1789772727,0.3007117342,1
1340,2,0.5635305292,0.1144337576,0.1789772727,0.3035361618,1
1341,2,0.748270089,0.1126733756,0.1789772727,0.2989974106,1
1342,2,0.6388461468,0.1135535666,0.1789772727,0.3017922809,1
1343,2,0.4063604787,0.1126733756,0.1761363636,0.2986182814,1
1344,2,0.5131250807,0.1126733756,0.1761363636,0.3017345874,1
1345,2,0.4593198919,0.1109129937,0.1761363636,0.2997565217,1
1346,2,0.5674312648,0.1100328027,0.1761363636,0.3048943767,1
1347,2,0.5877197094,0.1144337576,0.1761363636,0.3090693457,1
1348,2,0.5471585334,0.1144337576,0.1761363636,0.3058134951,1
1349,2,0.674609973,0.1135535666,0.1789772727,0.3073300121,1
1350,2,0.5628289515,0.1126733756,0.1789772727,0.3046209716,1
1351,2,0.7299431039,0.1135535666,0.1789772727,0.3047676213,1
1352,2,0.5534995394,0.1144337576,0.1789772727,0.3076233115,1
1353,2,0.5122349367,0.1161948266,0.1789772727,0.3041173607,1
1354,2,0.6872910599,0.1188353995,0.1704545455,0.3068923367,1
1355,2,0.5663617975,0.1153146356,0.1704545455,0.3037933672,1
1356,2,0.8000287783,0.1126733756,0.1789772727,0.3092125849,1
1357,2,0.6105112801,0.1126733756,0.1761363636,0.3137195052,1
1358,2,0.7809530739,0.1135535666,0.1789772727,0.3158192105,1
1359,2,0.2572516395,0.1117931847,0.1789772727,0.3164535557,1
1360,2,0.5065391238,0.1135535666,0.1761363636,0.3133017241,1
1361,2,0.8460500592,0.1109129937,0.1761363636,0.3133849961,1
1362,2,0.3725904643,0.1117931847,0.1761363636,0.3073507591,1
1363,2,0.768113924,0.1135535666,0.1761363636,0.3086944795,1
1364,2,0.5628067672,0.1135535666,0.1704545455,0.3015700328,1
1365,2,0.6970826448,0.1144337576,0.1704545455,0.3000893256,1
1366,2,0.56961734,0.1179552085,0.1704545455,0.2941247187,1
1367,2,0.5331047945,0.1161948266,0.1704545455,0.2839280177,1
1368,2,0.515953576,0.1153146356,0.1761363636,0.2722869878,1
1369,2,0.7036186871,0.1161948266,0.1761363636,0.2754445035,1
1370,2,0.7112112557,0.1161948266,0.1704545455,0.2659276204,1
1371,2,0.2609286832,0.1135535666,0.1704545455,0.2656598995,1
1372,2,0.6123803053,0.1153146356,0.1789772727,0.2588253416,1
1373,2,0.4651377184,0.1126733756,0.1761363636,0.2490214117,1
1374,2,0.7695059874,0.1223561633,0.1761363636,0.2484024136,1
1375,2,0.599904423,0.1126733756,0.1761363636,0.2496196629,1
1376,2,0.5278859435,0.1144337576,0.1761363636,0.2305674235,1
1377,2,0.71404807,0.1135535666,0.1761363636,0.2394056254,1
1378,2,0.5885617879,0.1126733756,0.1761363636,0.2384461499,1
1379,2,0.7094060102,0.1144337576,0.1704545455,0.2583234359,1
1380,2,0.6263869027,0.1144337576,0.1704545455,0.2616168015,1
1381,2,0.3261254978,0.1153146356,0.1704545455,0.2747732116,1
1382,2,0.7083531811,0.1135535666,0.1789772727,0.2798462679,1
1383,2,0.610583379,0.1117931847,0.1789772727,0.2903237633,1
1384,2,0.5450205238,0.1188353995,0.1704545455,0.3120537806,1
1385,2,0.5570268393,0.1144337576,0.1761363636,0.3216539357,1
1386,2,0.6460227602,0.1144337576,0.1761363636,0.3260017013,1
1387,2,0.6343344196,0.1144337576,0.1761363636,0.327787076,1
1388,2,0.7063565962,0.1153146356,0.1704545455,0.3204531703,1
1389,2,0.7260414443,0.1144337576,0.1704545455,0.3070588807,1
1390,2,0.6879344039,0.1144337576,0.1704545455,0.3026161908,1
1391,2,0.7835948518,0.1144337576,0.1704545455,0.2931277282,1
1392,2,0.6438209707,0.1135535666,0.1704545455,0.2849278503,1
1393,2,0.6911372588,0.1117931847,0.1704545455,0.2820880756,1
1394,2,0.4256746641,0.1135535666,0.1704545455,0.2765818912,1
1395,2,0.8000287783,0.1135535666,0.1704545455,0.2833829129,1
1396,2,0.6001040815,0.1144337576,0.1647727273,0.2870767231,1
1397,2,0.6653304755,0.1109129937,0.1647727273,0.2964765137,1
1398,2,0.8359340293,0.1135535666,0.1647727273,0.3067317609,1
1399,2,0.2962127745,0.1170750176,0.1761363636,0.3098295936,1
1400,2,0.4632215515,0.1126733756,0.1761363636,0.3145672882,1
1401,2,0.6222023936,0.1126733756,0.1704545455,0.3210056645,1
1402,2,0.2758392898,0.1144337576,0.1704545455,0.3240384143,1
1403,2,0.7411378442,0.1117931847,0.1704545455,0.3244203856,1
1404,2,0.47700076,0.1126733756,0.1704545455,0.3125713177,1
1405,2,0.7883237996,0.1170750176,0.1704545455,0.3148693979,1
1406,2,0.6067676835,0.1126733756,0.1704545455,0.310237996,1
1407,2,0.6167478347,0.1126733756,0.1704545455,0.2939621536,1
1408,2,0.4956133677,0.1153146356,0.1704545455,0.2932323156,1
1409,2,0.7127863393,0.1188353995,0.1704545455,0.2987242898,1
1410,2,0.5431709098,0.1161948266,0.1704545455,0.2893128467,1
1411,2,0.7665222022,0.1170750176,0.1704545455,0.2891141875,1
1412,2,0.7377852455,0.1126733756,0.1704545455,0.2725166253,1
1413,2,0.704567065,0.1153146356,0.1704545455,0.2772014577,1
1414,2,0.6162126391,0.1135535666,0.1704545455,0.2757162033,1
1415,2,0.4134123055,0.1109129937,0.1704545455,0.2886151238,1
1416,2,0.7778897947,0.1135535666,0.1704545455,0.2954434292,1
1417,2,0.6411671767,0.1135535666,0.1704545455,0.2993279408,1
1418,2,0.7297850409,0.1153146356,0.1647727273,0.3104539916,1
1419,2,0.6479001045,0.1135535666,0.1647727273,0.3120247918,1
1420,2,0.7375744949,0.1117931847,0.1647727273,0.3180036088,1
1421,2,0.7953756264,0.1117931847,0.1647727273,0.3209047718,1
1422,2,0.5430793996,0.1144337576,0.1704545455,0.3361932866,1
1423,2,0.4285281166,0.1153146356,0.1704545455,0.339808372,1
1424,2,0.6472234841,0.1153146356,0.1704545455,0.3400402832,1
1425,2,0.5384706163,0.1144337576,0.1704545455,0.3370660796,1
1426,2,0.8173297407,0.1153146356,0.1704545455,0.3373014012,1
1427,2,0.5540162478,0.1153146356,0.1590909091,0.3318671206,1
1428,2,0.6044716109,0.1144337576,0.1590909091,0.3283037604,1
1429,2,0.5137129641,0.1126733756,0.1590909091,0.3196400603,1
1430,2,0.6539536389,0.1135535666,0.1704545455,0.3139460164,1
1431,2,0.6350674247,0.1135535666,0.1704545455,0.3048750508,1
1432,2,0.6487736104,0.1135535666,0.1704545455,0.3019326781,1
1433,2,0.3141404426,0.1117931847,0.1761363636,0.2928304499,1
1434,2,0.6287911236,0.1117931847,0.1761363636,0.2874294213,1
1435,2,0.6490398217,0.1170750176,0.1704545455,0.281544676,1
1436,2,0.8739190562,0.1126733756,0.1704545455,0.2765153873,1
1437,2,0.1338876527,0.1100328027,0.1704545455,0.2786179346,1
1438,2,0.7219955869,0.1144337576,0.1704545455,0.2912707338,1
1439,2,0.6419408533,0.1153146356,0.1704545455,0.2984648108,1
1440,2,0.5185824127,0.1109129937,0.1704545455,0.3126122431,1
1441,2,0.5730808601,0.1144337576,0.1647727273,0.3159499447,1
1442,2,0.5778172031,0.1214759724,0.1647727273,0.3199512646,1
1443,2,0.6753873467,0.1135535666,0.1704545455,0.3505632513,1
1444,2,0.7744697192,0.1179552085,0.1704545455,0.3525992948,1
1445,2,0.7565198667,0.1161948266,0.1704545455,0.3537435034,1
1446,2,0.7675851984,0.1135535666,0.1647727273,0.3458306725,1
1447,2,0.610020453,0.1135535666,0.1647727273,0.3453480927,1
1448,2,0.5319068436,0.1161948266,0.1590909091,0.3309622124,1
1449,2,0.7558377002,0.1126733756,0.1647727273,0.3252502637,1
1450,2,0.3742709232,0.1135535666,0.1647727273,0.3201436712,1
1451,2,0.4503500492,0.1135535666,0.1704545455,0.3161198992,1
1452,2,0.6558226641,0.1126733756,0.1647727273,0.3190850082,1
1453,2,0.6870636711,0.1100328027,0.1704545455,0.3208348574,1
1454,2,0.8099590149,0.1100328027,0.1704545455,0.3202505322,1
1455,2,0.7429930043,0.1109129937,0.1590909091,0.3205029061,1
1456,2,0.5149885599,0.1100328027,0.1590909091,0.3178853796,1
1457,2,0.7027174509,0.1100328027,0.1590909091,0.3199035181,1
1458,4,0.6634263248,0.1407920757,0.7613636364,0.1662075338,1
1459,4,0.5119557842,0.1407920757,0.7613636364,0.1474758774,1
1460,4,0.7328104215,0.1416715795,0.7613636364,0.1522351715,1
1461,4,0.7482395856,0.1407920757,0.7613636364,0.161350189,1
1462,4,0.6364391528,0.1399118847,0.7613636364,0.1564681183,1
1463,4,0.5395271424,0.1399118847,0.7613636364,0.1551963017,1
1464,4,0.6479555652,0.1416715795,0.7613636364,0.1687869768,1
1465,4,0.652761234,0.1425517705,0.7556818182,0.1728062016,1
1466,4,0.702157298,0.1381515028,0.7556818182,0.166959824,1
1467,4,0.8128984315,0.1302304712,0.7556818182,0.1653074571,1
1468,4,0.2028668864,0.1275898983,0.7556818182,0.1686295273,1
1469,4,0.6111906735,0.1267103945,0.7613636364,0.1834519462,1
1470,4,0.7227914478,0.1275898983,0.7613636364,0.196129187,1
1471,4,0.6715929115,0.1284700893,0.7613636364,0.2021776343,1
1472,4,0.6058858585,0.1284700893,0.7613636364,0.2095271713,1
1473,4,0.6227570005,0.1284700893,0.7556818182,0.20964199,1
1474,4,0.6092467763,0.1267103945,0.7556818182,0.2261469015,1
1475,4,0.5799191632,0.1275898983,0.7556818182,0.2385211799,1
1476,4,0.6601763283,0.1249500126,0.7556818182,0.2535425422,1
1477,4,0.5944221338,0.1240698216,0.7556818182,0.2540717316,1
1478,4,0.6699595941,0.1249500126,0.7556818182,0.25420275,1
1479,4,0.4528836788,0.1258302035,0.7556818182,0.2625336463,1
1480,4,0.6553595674,0.1258302035,0.7556818182,0.2481363979,1
1481,4,0.6547467268,0.1258302035,0.7556818182,0.23896255,1
1482,4,0.6214703125,0.1293502803,0.7556818182,0.2397654287,1
1483,4,0.6821415348,0.1267103945,0.7556818182,0.23993652,1
1484,4,0.542386141,0.1267103945,0.7556818182,0.2445593958,1
1485,4,0.6263730375,0.1258302035,0.7556818182,0.2434032506,1
1486,4,0.5457082364,0.1267103945,0.7556818182,0.2557786658,1
1487,4,0.6656669367,0.1267103945,0.7556818182,0.2586349244,1
1488,4,0.6494696421,0.1275898983,0.7556818182,0.2649380192,1
1489,4,0.6211652787,0.1267103945,0.7556818182,0.2645952682,1
1490,4,0.6694493558,0.1249500126,0.7556818182,0.2690209058,1
1491,4,0.4905193033,0.1231896306,0.7556818182,0.288246226,1
1492,4,0.6708136888,0.1231896306,0.7471590909,0.291502645,1
1493,4,0.6506759121,0.1223094397,0.7471590909,0.2906758931,1
1494,4,0.5618741036,0.1231896306,0.7471590909,0.2917504716,1
1495,4,0.6580133614,0.1231896306,0.7471590909,0.2894239708,1
1496,4,0.659502481,0.1258302035,0.7556818182,0.2861522048,1
1497,4,0.6730376625,0.1249500126,0.7556818182,0.2811627047,1
1498,4,0.5976832224,0.1249500126,0.7556818182,0.2808654265,1
1499,4,0.5624176184,0.1249500126,0.7471590909,0.2788884976,1
1500,4,0.5528321621,0.1205497449,0.7443181818,0.2767234252,1
1501,4,0.6594812207,0.1214292487,0.7443181818,0.273279431,1
1502,4,0.6411616306,0.1223094397,0.7471590909,0.2721602324,1
1503,4,0.5655049298,0.1205497449,0.7471590909,0.2737475164,1
1504,4,0.6411533115,0.1223094397,0.7471590909,0.2685999985,1
1505,4,0.6757940588,0.1223094397,0.7471590909,0.2668967589,1
1506,4,0.5976000314,0.1214292487,0.7471590909,0.2686014195,1
1507,4,0.5916130498,0.1231896306,0.7443181818,0.2674390217,1
1508,4,0.6351783461,0.1223094397,0.7471590909,0.2578721186,1
1509,4,0.6726300264,0.1319908532,0.7471590909,0.250753356,1
1510,4,0.6642166396,0.1214292487,0.7443181818,0.2487451646,1
1511,4,0.6026275429,0.1407920757,0.7443181818,0.2522729992,1
1512,4,0.6478529629,0.1302304712,0.7443181818,0.2485780522,1
1513,4,0.4826022898,0.1196695539,0.7443181818,0.2513621227,1
1514,4,0.5384539781,0.1231896306,0.7443181818,0.2487647747,1
1515,4,0.6497524916,0.1240698216,0.7443181818,0.2396292946,1
1516,4,0.6701564796,0.1240698216,0.7443181818,0.2377379114,1
1517,4,0.6035398713,0.1223094397,0.7386363636,0.228566053,1
1518,4,0.5781555133,0.1205497449,0.7386363636,0.2331065095,1
1519,4,0.6677855351,0.1205497449,0.7386363636,0.2253772748,1
1520,4,0.5538304545,0.1196695539,0.7386363636,0.2314524373,1
1521,4,0.6561166058,0.1205497449,0.7386363636,0.2271939121,1
1522,4,0.5612926904,0.1214292487,0.7386363636,0.2299904877,1
1523,4,0.6605395959,0.1223094397,0.7386363636,0.2209016171,1
1524,4,0.5785548303,0.1214292487,0.7386363636,0.2222430639,1
1525,4,0.6839024117,0.1214292487,0.7386363636,0.2185609061,1
1526,4,0.6281976943,0.1214292487,0.7471590909,0.2171810916,1
1527,4,0.5981074967,0.118789363,0.7386363636,0.2218556927,1
1528,4,0.6528083756,0.117909172,0.7386363636,0.2260863659,1
1529,4,0.6420406826,0.1196695539,0.7386363636,0.2366369019,1
1530,4,0.6497608107,0.118789363,0.7329545455,0.2278021104,1
1531,4,0.7125589504,0.118789363,0.7386363636,0.2257558356,1
1532,4,0.7334704038,0.118789363,0.7386363636,0.222377777,1
1533,4,0.5404477899,0.1196695539,0.7386363636,0.2307629564,1
1534,4,0.5681504047,0.117028981,0.7272727273,0.2218951972,1
1535,4,0.6498079523,0.117028981,0.7272727273,0.2234787865,1
1536,4,0.6525671216,0.117028981,0.7386363636,0.2142642974,1
1537,4,0.775745315,0.117909172,0.7386363636,0.2190218863,1
1538,4,0.6222994498,0.1161487901,0.7386363636,0.2163924232,1
1539,4,0.6358706808,0.118789363,0.7386363636,0.213672583,1
1540,4,0.6611080679,0.1196695539,0.7329545455,0.2110644352,1
1541,4,0.6732539591,0.117909172,0.7329545455,0.2046814789,1
1542,4,0.5654439231,0.117028981,0.7272727273,0.2095550233,1
1543,4,0.6194959119,0.1161487901,0.7272727273,0.2084031411,1
1544,4,0.647771621,0.1161487901,0.7386363636,0.1900904027,1
1545,4,0.6413723813,0.117909172,0.7329545455,0.1901665696,1
1546,4,0.6142354654,0.117909172,0.7329545455,0.1882345452,1
1547,4,0.5425220197,0.118789363,0.7329545455,0.1907372529,1
1548,4,0.6508228829,0.117909172,0.7329545455,0.1883490797,1
1549,4,0.6792548058,0.1161487901,0.7329545455,0.198619674,1
1550,4,0.6377535712,0.1161487901,0.7329545455,0.1944694308,1
1551,4,0.6112489073,0.1161487901,0.7272727273,0.1936060165,1
1552,4,0.5323033875,0.1161487901,0.7272727273,0.2014790588,1
1553,4,0.6601430519,0.117028981,0.7272727273,0.1981214629,1
1554,4,0.623838484,0.117909172,0.7272727273,0.1918780511,1
1555,4,0.5442449981,0.1161487901,0.7272727273,0.1914960798,1
1556,4,0.6312563513,0.1143884081,0.7272727273,0.1881742937,1
1557,4,0.6693938951,0.1143884081,0.7215909091,0.1826715197,1
1558,4,0.6258433879,0.1161487901,0.7215909091,0.1774967181,1
1559,4,0.6769781445,0.1152685991,0.7272727273,0.1679684669,1
1560,4,0.5557050258,0.117028981,0.7272727273,0.1739234108,1
1561,4,0.6506287705,0.1161487901,0.7272727273,0.176242238,1
1562,4,0.6321686797,0.117028981,0.7215909091,0.1787580192,1
1563,4,0.5715806484,0.117028981,0.7215909091,0.1878713314,1
1564,4,0.615247623,0.117028981,0.7215909091,0.1879224882,1
1565,4,0.5488556305,0.117909172,0.7272727273,0.1846137756,1
1566,4,0.6377979398,0.1143884081,0.7215909091,0.1859478331,1
1567,4,0.6669619438,0.1143884081,0.7215909091,0.181380093,1
1568,4,0.6084730997,0.1135089043,0.7215909091,0.1764042348,1
1569,4,0.5878666802,0.1152685991,0.7215909091,0.1754242965,1
1570,4,0.6576325317,0.1152685991,0.7272727273,0.1856263974,1
1571,4,0.5652359455,0.1161487901,0.7272727273,0.1892241464,1
1572,4,0.6438015595,0.1152685991,0.7215909091,0.1827002244,1
1573,4,0.5815034899,0.1161487901,0.7329545455,0.1873358895,1
1574,4,0.6062602182,0.1126287133,0.7329545455,0.1899795628,1
1575,4,0.5690821443,0.1126287133,0.7215909091,0.1802392948,1
1576,4,0.5406252641,0.1117485224,0.7215909091,0.1692456834,1
1577,4,0.6469572728,0.1143884081,0.7215909091,0.157648421,1
1578,4,0.561905531,0.1152685991,0.7215909091,0.158658485,1
1579,4,0.6561868556,0.1135089043,0.7215909091,0.1487050633,1
1580,4,0.6389764794,0.1143884081,0.7215909091,0.1468654054,1
1581,4,0.5948990957,0.1135089043,0.7215909091,0.1501172771,1
1582,4,0.6569291049,0.1143884081,0.7215909091,0.1583830905,1
1583,4,0.6442757484,0.1117485224,0.7159090909,0.1547063326,1
1584,4,0.6739083953,0.1126287133,0.7159090909,0.1588074083,1
1585,4,0.595162534,0.1126287133,0.7159090909,0.1642476572,1
1586,4,0.6436490426,0.1126287133,0.7159090909,0.1728596321,1
1587,4,0.5925697467,0.1126287133,0.7215909091,0.1814289762,1
1588,4,0.5364490741,0.1135089043,0.7159090909,0.1756408606,1
1589,4,0.56142025,0.1143884081,0.7159090909,0.1785781175,1
1590,4,0.5856288413,0.1126287133,0.7159090909,0.1820871946,1
1591,4,0.6349944019,0.1126287133,0.7159090909,0.1849082118,1
1592,4,0.6517657146,0.1135089043,0.7159090909,0.1804038494,1
1593,4,0.6507036424,0.1126287133,0.7159090909,0.180192401,1
1594,4,0.6180178845,0.1117485224,0.7159090909,0.1779787295,1
1595,4,0.7173147046,0.1135089043,0.7159090909,0.1874052355,1
1596,4,0.5412547429,0.1135089043,0.7215909091,0.192611868,1
1597,4,0.5371164514,0.1108683314,0.7102272727,0.1881146107,1
1598,4,0.5225922206,0.1108683314,0.7102272727,0.1835292499,1
1599,4,0.5646702464,0.1064680637,0.7017045455,0.1943324441,1
1600,4,0.6817061684,0.1073482547,0.7017045455,0.199706189,1
1601,4,0.6430694784,0.1073482547,0.7102272727,0.1847018791,1
1602,4,0.615807776,0.1091079495,0.7017045455,0.1950980919,1
1603,4,0.700873383,0.1117485224,0.7017045455,0.1915256371,1
1604,4,0.615402913,0.1126287133,0.7017045455,0.1889626779,1
1605,4,0.6386548074,0.1126287133,0.7017045455,0.196305394,1
1606,4,0.5939673561,0.1117485224,0.7017045455,0.1963338145,1
1607,4,0.5768928586,0.1126287133,0.7017045455,0.1960859879,1
1608,4,0.6195735569,0.1099881404,0.7017045455,0.204233572,1
1609,4,0.6008306166,0.1108683314,0.7017045455,0.2155903972,1
1610,4,0.6185308959,0.1108683314,0.7017045455,0.2098102393,1
1611,4,0.550500964,0.1117485224,0.7017045455,0.2173834455,1
1612,4,0.6291793485,0.1117485224,0.7102272727,0.2254568522,1
1613,4,0.6044937952,0.1126287133,0.7102272727,0.2197684924,1
1614,4,0.6596938203,0.1108683314,0.7102272727,0.2155903972,1
1615,4,0.6508727975,0.1135089043,0.7102272727,0.2081311571,1
1616,4,0.5438613954,0.1143884081,0.7159090909,0.2107930196,1
1617,4,0.5933212391,0.1161487901,0.7159090909,0.202936177,1
1618,4,0.6567571768,0.1161487901,0.7159090909,0.1904621426,1
1619,4,0.5342417386,0.117028981,0.7102272727,0.1913102099,1
1620,4,0.484230061,0.1152685991,0.7102272727,0.1936503525,1
1621,4,0.6707720933,0.1152685991,0.7159090909,0.191598962,1
1622,4,0.4697908703,0.1152685991,0.7159090909,0.1978361212,1
1623,4,0.6359233684,0.117028981,0.7159090909,0.1915469525,1
1624,4,0.5381489443,0.1152685991,0.7159090909,0.1978724995,1
1625,4,0.6456816769,0.118789363,0.7159090909,0.1892761559,1
1626,4,0.5286374359,0.117909172,0.7159090909,0.1914599858,1
1627,4,0.5990336902,0.1196695539,0.7159090909,0.1890888649,1
1628,4,0.7028949251,0.118789363,0.7159090909,0.1915335949,1
1629,4,0.6436407235,0.117909172,0.7159090909,0.1938754427,1
1630,4,0.5303927667,0.117028981,0.7215909091,0.1882095351,1
1631,4,0.5683916587,0.117909172,0.7215909091,0.1864781593,1
1632,4,0.6303384769,0.117028981,0.7159090909,0.1883379957,1
1633,4,0.6457510028,0.117028981,0.7159090909,0.1813965769,1
1634,4,0.6704587403,0.118789363,0.7272727273,0.1788569225,1
1635,4,0.6460532635,0.1205497449,0.7159090909,0.1844426843,1
1636,4,0.6024269605,0.1214292487,0.7159090909,0.1869857491,1
1637,4,0.6439734876,0.1205497449,0.7215909091,0.1941857944,1
1638,4,0.669710021,0.1205497449,0.7215909091,0.1888859426,1
1639,4,0.6184948465,0.118789363,0.7215909091,0.1921716347,1
1640,4,0.5773624254,0.1214292487,0.7215909091,0.2018328938,1
1641,4,0.5503678583,0.118789363,0.7215909091,0.2044927668,1
1642,4,0.5241007514,0.1205497449,0.7215909091,0.2045714916,1
1643,4,0.6492533454,0.1214292487,0.7215909091,0.1988052597,1
1644,4,0.6109993342,0.1231896306,0.7215909091,0.2024530288,1
1645,4,0.5583061322,0.1231896306,0.7215909091,0.2084136567,1
1646,4,0.635566571,0.1249500126,0.7215909091,0.2025897313,1
1647,4,0.6968774402,0.1240698216,0.7215909091,0.2036523732,1
1648,4,0.6341763567,0.1249500126,0.7159090909,0.2026494143,1
1649,4,0.5703078256,0.1258302035,0.7159090909,0.2076519878,1
1650,4,0.6118395636,0.1249500126,0.7159090909,0.2043131494,1
1651,4,0.643112923,0.1249500126,0.7215909091,0.2029171352,1
1652,4,0.6560112305,0.1249500126,0.7215909091,0.2109874157,1
1653,4,0.6050178987,0.1249500126,0.7215909091,0.2147431826,1
1654,4,0.5807704848,0.1258302035,0.7215909091,0.2190861166,1
1655,4,0.6097995342,0.1302304712,0.7215909091,0.2157893406,1
1656,4,0.6565852486,0.1346307389,0.7159090909,0.2223109889,1
1657,4,0.6253941564,0.1390316937,0.7159090909,0.2231209726,1
1658,4,0.5670190067,0.1399118847,0.7159090909,0.226977348,1
1659,4,0.598456899,0.1416715795,0.7215909091,0.2169011499,1
1660,4,0.5586721728,0.1407920757,0.7215909091,0.2192839232,1
1661,4,0.6342983702,0.1390316937,0.7159090909,0.2056364071,1
1662,4,0.5907534091,0.1381515028,0.7215909091,0.2076738715,1
1663,4,0.5940422281,0.1399118847,0.7215909091,0.2107691464,1
1664,4,0.6480470754,0.1399118847,0.7215909091,0.207524664,1
1665,4,0.6274850244,0.1416715795,0.7215909091,0.209360343,1
1666,4,0.5910501238,0.1425517705,0.7215909091,0.2107873355,1
1667,4,0.5346687859,0.1425517705,0.7215909091,0.2163821918,1
1668,4,0.6410562553,0.1425517705,0.7215909091,0.2136430257,1
1669,4,0.6420665639,0.1416715795,0.7102272727,0.2160360304,1
1670,4,0.5944110417,0.1407920757,0.7159090909,0.2230661211,1
1671,4,0.6377702094,0.1407920757,0.7159090909,0.2229217451,1
1672,4,0.6073139713,0.1407920757,0.7159090909,0.2277697111,1
1673,4,0.6083926817,0.1416715795,0.7159090909,0.2260619243,1
1674,4,0.6510511957,0.1416715795,0.7159090909,0.2257990348,1
1675,4,0.6175381496,0.1451923434,0.7102272727,0.2279680861,1
1676,4,0.6574365702,0.1451923434,0.7102272727,0.2260826712,1
1677,4,0.6122305615,0.1469527253,0.7159090909,0.2258160871,1
1678,4,0.6244374594,0.1469527253,0.7159090909,0.2219494803,1
1679,4,0.5882826354,0.1451923434,0.7159090909,0.2310201618,1
1680,4,0.6162181851,0.1548730697,0.7159090909,0.2268432033,1
1681,4,0.5922342096,0.1495926111,0.7159090909,0.2248949792,1
1682,4,0.6367635979,0.150472802,0.7159090909,0.2176304195,1
1683,4,0.6240658728,0.150472802,0.7159090909,0.2166646914,1
1684,4,0.6655726535,0.152233184,0.7102272727,0.2105503087,1
1685,4,0.6662021324,0.152233184,0.7102272727,0.209148042,1
1686,4,0.6514052202,0.150472802,0.7102272727,0.202304958,1
1687,4,0.6314227334,0.151352993,0.7102272727,0.2026522563,1
1688,4,0.6482384147,0.150472802,0.7017045455,0.19422132,1
1689,4,0.6620453536,0.151352993,0.7017045455,0.1925109753,1
1690,4,0.6184893004,0.151352993,0.7017045455,0.195962643,1
1691,4,0.6215701417,0.1487124201,0.7017045455,0.1852759728,1
1692,4,0.6438986157,0.1478322291,0.7017045455,0.1729951978,1
1693,4,0.6289103641,0.1478322291,0.6988636364,0.1803291035,1
1694,4,0.6633847293,0.1478322291,0.6988636364,0.1728920314,1
1695,4,0.5536918028,0.1487124201,0.7102272727,0.167552391,1
1696,4,0.6551737741,0.151352993,0.7102272727,0.168465257,1
1697,4,0.576366906,0.1531133749,0.7017045455,0.160284705,1
1698,4,0.6567599498,0.151352993,0.7017045455,0.1646506597,1
1699,4,0.6518905012,0.1495926111,0.7159090909,0.1705408049,1
1700,4,0.6260375004,0.1469527253,0.7017045455,0.1823267793,1
1701,4,0.5579142104,0.1487124201,0.7017045455,0.1807088012,1
1702,4,0.6185974487,0.1469527253,0.7017045455,0.1914807328,1
1703,4,0.7210056136,0.1478322291,0.7017045455,0.1953788863,1
1704,4,0.6147845263,0.1469527253,0.7017045455,0.1989422465,1
1705,4,0.5601668384,0.151352993,0.6988636364,0.2132314971,1
1706,4,0.6474259156,0.152233184,0.6988636364,0.2116331291,1
1707,4,0.6438292898,0.1531133749,0.6988636364,0.2124021874,1
1708,4,0.6390384102,0.152233184,0.7017045455,0.2188041854,1
1709,4,0.6566656666,0.151352993,0.7017045455,0.2183227424,1
1710,4,0.6464858569,0.150472802,0.7017045455,0.2159860103,1
1711,4,0.6025009073,0.150472802,0.6988636364,0.2121637395,1
1712,4,0.5937843359,0.1487124201,0.6988636364,0.2127310123,1
1713,4,0.6490897363,0.151352993,0.6988636364,0.2111553808,1
1714,4,0.6215424114,0.1478322291,0.6988636364,0.2140110709,1
1715,4,0.6357237099,0.1469527253,0.6988636364,0.2053013296,1
1716,4,0.5810302261,0.1469527253,0.6988636364,0.210123433,1
1717,4,0.6560389608,0.151352993,0.7017045455,0.1930009444,1
1718,4,0.5928553693,0.1531133749,0.6931818182,0.1919820701,1
1719,4,0.5266131207,0.1531133749,0.6931818182,0.1859751167,1
1720,4,0.6523924204,0.152233184,0.6988636364,0.1857420688,1
1721,4,0.5770518456,0.151352993,0.6988636364,0.1832700551,1
1722,4,0.6462057804,0.151352993,0.6988636364,0.1775078021,1
1723,4,0.6454274817,0.1539935659,0.6931818182,0.178369227,1
1724,4,0.6031433274,0.152233184,0.6931818182,0.1807218746,1
1725,4,0.6598047417,0.1539935659,0.6931818182,0.1709696699,1
1726,4,0.6294566519,0.1531133749,0.6931818182,0.175855151,1
1727,4,0.5389087557,0.1531133749,0.6931818182,0.1735991331,1
1728,4,0.6552763763,0.1531133749,0.6931818182,0.1689012272,1
1729,4,0.5779808121,0.1531133749,0.6931818182,0.1756027771,1
1730,4,0.6396919223,0.152233184,0.6875,0.1840541763,1
1731,4,0.5615228522,0.1531133749,0.6875,0.1912843472,1
1732,4,0.6580383187,0.150472802,0.6931818182,0.1875800214,1
1733,4,0.578615837,0.150472802,0.6931818182,0.1928201901,1
1734,4,0.5662314649,0.1557532607,0.6875,0.1891332008,1
1735,4,0.6535709601,0.152233184,0.6875,0.1934681772,1
1736,4,0.5795327875,0.1531133749,0.6931818182,0.1936287529,1
1737,4,0.6450910206,0.1531133749,0.6931818182,0.1913892188,1
1738,4,0.6299391599,0.1531133749,0.6931818182,0.1984846767,1
1739,4,0.6532215578,0.1531133749,0.6875,0.1928432107,1
1740,4,0.6573117837,0.151352993,0.6875,0.1998244183,1
1741,4,0.65251998,0.1645544832,0.6875,0.1948923276,1
1742,4,0.6151061983,0.1654346742,0.6875,0.2008657448,1
1743,4,0.5652054421,0.1671950561,0.6875,0.1913738717,1
1744,4,0.640706853,0.1654346742,0.6818181818,0.1955857874,1
1745,4,0.5907025705,0.1654346742,0.6818181818,0.1981467571,1
1746,4,0.6534156702,0.1671950561,0.6818181818,0.1910191841,1
1747,4,0.6267889927,0.1689547509,0.6875,0.1967328381,1
1748,4,0.5870939275,0.1689547509,0.6818181818,0.1902717254,1
1749,4,0.6490009992,0.1689547509,0.6818181818,0.1969133081,1
1750,4,0.6005921356,0.1680745599,0.6875,0.1915222267,1
1751,4,0.6103504441,0.1680745599,0.6875,0.1963167622,1
1752,4,0.610579682,0.1698349419,0.6875,0.1927812541,1
1753,4,0.7122206402,0.1707151328,0.6875,0.1929898604,1
1754,4,0.59114718,0.1733557057,0.6761363636,0.1925402484,1
1755,4,0.6259755696,0.1830364321,0.6761363636,0.1770573375,1
1756,4,0.5870042664,0.1909574636,0.6818181818,0.162589322,1
1757,4,0.6742938471,0.1900772727,0.6818181818,0.1526191323,1
1758,4,0.5667195189,0.1883168907,0.6818181818,0.1490091625,1
1759,4,0.6428171322,0.1883168907,0.6875,0.1629593567,1
1760,4,0.6290018743,0.1874373869,0.6875,0.1641095337,1
1761,4,0.633638388,0.1927178455,0.6818181818,0.1890519183,1
1762,4,0.6174993271,0.1935980365,0.6875,0.1985403808,1
1763,4,0.5613121016,0.1953577313,0.6875,0.202160582,1
1764,4,0.6332307519,0.1988784952,0.6875,0.2145422497,1
1765,4,0.652916524,0.1935980365,0.6875,0.2351721102,1
1766,4,0.6454311798,0.1874373869,0.6875,0.24823928,1
1767,4,0.6526392205,0.1865571959,0.6818181818,0.2496006212,1
1768,4,0.6009942256,0.1865571959,0.6818181818,0.2535954043,1
1769,4,0.5886985905,0.1865571959,0.6818181818,0.2548638105,1
1770,4,0.6610664724,0.1821562411,0.6818181818,0.2531935387,1
1771,4,0.5900767887,0.1812760501,0.6818181818,0.251816282,1
1772,4,0.6225924675,0.1821562411,0.6818181818,0.248122756,1
1773,4,0.6022615024,0.1803965463,0.6704545455,0.2508528277,1
1774,4,0.5984846294,0.1777559734,0.6704545455,0.2445292701,1
1775,4,0.6193738984,0.1795163553,0.6875,0.2355807967,1
1776,4,0.6377951667,0.1803965463,0.6875,0.2346531522,1
1777,4,0.589863265,0.1803965463,0.6875,0.2370410412,1
1778,4,0.6092467763,0.1777559734,0.6818181818,0.2290980845,1
1779,4,0.5749554315,0.1751154005,0.6761363636,0.2149327472,1
1780,4,0.5995633398,0.1724755148,0.6704545455,0.2131234992,1
1781,4,0.5873647609,0.1724755148,0.6704545455,0.2037828232,1
1782,4,0.6431249391,0.1715953238,0.6704545455,0.2028026007,1
1783,4,0.5909225642,0.1715953238,0.6704545455,0.1964764853,1
1784,4,0.589622011,0.1733557057,0.6704545455,0.1915529208,1
1785,4,0.6518572248,0.1724755148,0.6704545455,0.1923839357,1
1786,4,0.6752764253,0.1742358967,0.6818181818,0.1816461087,1
1787,4,0.5937898819,0.1742358967,0.6761363636,0.1829057045,1
1788,4,0.5599283574,0.1742358967,0.6761363636,0.1766918501,1
1789,4,0.613797326,0.1724755148,0.6761363636,0.1755919774,1
1790,4,0.6037728062,0.1715953238,0.6761363636,0.17346442,1
1791,4,0.6323711112,0.1707151328,0.6761363636,0.1756437026,1
1792,4,0.580141006,0.1707151328,0.6761363636,0.1701616756,1
1793,4,0.6581603323,0.1724755148,0.6761363636,0.1790302874,1
1794,4,0.5600291106,0.1707151328,0.6761363636,0.1692121473,1
1795,4,0.6596910473,0.1707151328,0.6761363636,0.1744631158,1
1796,4,0.6538538096,0.1715953238,0.6761363636,0.1818197579,1
1797,4,0.575884398,0.1733557057,0.6761363636,0.1806815175,1
1798,4,0.6494862803,0.1733557057,0.6761363636,0.1849167379,1
1799,4,0.6216893822,0.183916623,0.6761363636,0.1868615516,1
1800,4,0.5602028878,0.1733557057,0.6761363636,0.1795270775,1
1801,4,0.6466716502,0.1724755148,0.6704545455,0.1813368939,1
1802,4,0.675253317,0.1724755148,0.6704545455,0.1875317066,1
1803,4,0.5940144977,0.1733557057,0.6704545455,0.1852765412,1
1804,4,0.6230869916,0.1715953238,0.6704545455,0.1966322296,1
1805,4,0.6478196865,0.1707151328,0.6704545455,0.1915353001,1
1806,4,0.6310483737,0.1707151328,0.6704545455,0.1973495626,1
1807,4,0.647217938,0.1689547509,0.6704545455,0.1937481189,1
1808,4,0.6416912802,0.1707151328,0.6704545455,0.1924817022,1
1809,4,0.5685885442,0.1707151328,0.6704545455,0.1869394237,1
1810,4,0.6440890311,0.1715953238,0.6761363636,0.1819149665,1
1811,4,0.6529470274,0.1715953238,0.6761363636,0.1887176934,1
1812,4,0.6387934592,0.1733557057,0.6761363636,0.1826195103,1
1813,4,0.6034899567,0.1698349419,0.6647727273,0.1829994921,1
1814,4,0.6906205504,0.1707151328,0.6647727273,0.1710168479,1
1815,4,0.6187139162,0.1689547509,0.6704545455,0.1744153693,1
1816,4,0.6524256969,0.1689547509,0.6704545455,0.1707508322,1
1817,4,0.5669385887,0.1715953238,0.6704545455,0.1661535348,1
1818,4,0.6579079861,0.1707151328,0.6704545455,0.1661984392,1
1819,4,0.6428088131,0.1707151328,0.6704545455,0.1709176605,1
1820,4,0.6543557289,0.1698349419,0.6704545455,0.1704887954,1
1821,4,0.5998877848,0.1715953238,0.6647727273,0.1802330423,1
1822,4,0.6251085338,0.1724755148,0.6647727273,0.176619662,1
1823,4,0.5851574255,0.1812760501,0.65625,0.1802986936,1
1824,4,0.6399387224,0.1803965463,0.6647727273,0.1803967443,1
1825,4,0.6613104995,0.1830364321,0.6704545455,0.1775080863,1
1826,4,0.6554261202,0.1777559734,0.6704545455,0.1770544954,1
1827,4,0.6185447611,0.1742358967,0.6647727273,0.1854683795,1
1828,4,0.65685146,0.1724755148,0.6647727273,0.1808355565,1
1829,4,0.6422431141,0.1724755148,0.65625,0.1836548685,1
1830,4,0.5864136101,0.1733557057,0.65625,0.1853546976,1
1831,4,0.685369347,0.1795163553,0.65625,0.1809716906,1
1832,4,0.657339514,0.1795163553,0.65625,0.1898846384,1
1833,4,0.5795947182,0.1777559734,0.65625,0.1978668154,1
1834,4,0.6537946519,0.1786361644,0.65625,0.1916751289,1
1835,4,0.6657667659,0.1786361644,0.65625,0.1925141015,1
1836,4,0.5626182009,0.1865571959,0.6647727273,0.1991559685,1
1837,4,0.6576417748,0.1962379223,0.6647727273,0.1937088987,1
1838,4,0.6594072738,0.2059193358,0.6647727273,0.1918638409,1
1839,4,0.5883131387,0.2076797177,0.65625,0.1990712754,1
1840,4,0.5995966162,0.1988784952,0.65625,0.1963772978,1
1841,4,0.645371097,0.1979983042,0.6505681818,0.1950924078,1
1842,4,0.6602678385,0.1944775404,0.6505681818,0.1911152453,1
1843,4,0.6579495816,0.1918376546,0.6505681818,0.190375176,1
1844,4,0.6213150226,0.1891970817,0.6505681818,0.1922790641,1
1845,4,0.6000680321,0.1883168907,0.65625,0.195866866,1
1846,4,0.6062713103,0.1865571959,0.65625,0.1884772561,1
1847,4,0.6362838629,0.1865571959,0.65625,0.1949628104,1
1848,4,0.5793728754,0.185677005,0.65625,0.1923077688,1
1849,4,0.6605007734,0.183916623,0.65625,0.2077284389,1
1850,4,0.6102894373,0.1812760501,0.65625,0.2045456289,1
1851,4,0.6154454325,0.1812760501,0.65625,0.2141057111,1
1852,4,0.6532298769,0.1821562411,0.6505681818,0.2079651815,1
1853,4,0.6579911771,0.1821562411,0.65625,0.2121429925,1
1854,4,0.5738018491,0.1821562411,0.65625,0.210145601,1
1855,4,0.6610415151,0.183916623,0.65625,0.2145848805,1
1856,4,0.5983542967,0.1803965463,0.65625,0.227455949,1
1857,4,0.6119449389,0.183916623,0.65625,0.2156299016,1
1858,4,0.632756563,0.1795163553,0.65625,0.2179404869,1
1859,4,0.5445879304,0.1812760501,0.65625,0.2128319051,1
1860,4,0.6815508784,0.1830364321,0.65625,0.2106745062,1
1861,4,0.6124024896,0.1821562411,0.65625,0.2036412892,1
1862,4,0.5844974432,0.1812760501,0.65625,0.1915091532,1
1863,4,0.6673168922,0.1821562411,0.65625,0.1873603311,1
1864,4,0.5673850472,0.1812760501,0.65625,0.1895572344,1
1865,4,0.608819729,0.1786361644,0.65625,0.1754987582,1
1866,4,0.6381833916,0.1795163553,0.6505681818,0.1694736157,1
1867,4,0.5689129892,0.1812760501,0.6505681818,0.1625611857,1
1868,4,0.6504817997,0.1812760501,0.6505681818,0.1559892332,1
1869,4,0.6392094143,0.1803965463,0.6505681818,0.1583205654,1
1870,4,0.5902348517,0.1803965463,0.6505681818,0.1577498821,1
1871,4,0.6530357645,0.1821562411,0.6505681818,0.1450359789,1
1872,4,0.5965130018,0.1812760501,0.6505681818,0.1495968981,1
1873,4,0.5779447627,0.1812760501,0.6477272727,0.1425355448,1
1874,4,0.643119393,0.1795163553,0.6477272727,0.1387510732,1
1875,4,0.6359372336,0.1795163553,0.6477272727,0.1434836521,1
1876,4,0.5500646736,0.1786361644,0.6477272727,0.1526299321,1
1877,4,0.6528703064,0.1786361644,0.6477272727,0.15330975,1
1878,4,0.6539508658,0.1759955915,0.6505681818,0.1585152457,1
1879,4,0.6294760632,0.1768757824,0.6505681818,0.1743068031,1
1880,4,0.5987619328,0.1803965463,0.6505681818,0.1853515713,1
1881,4,0.6374485374,0.1812760501,0.6505681818,0.1911499183,1
1882,4,0.5748777865,0.1812760501,0.6505681818,0.1971435141,1
1883,4,0.6602900228,0.1812760501,0.6505681818,0.1951819323,1
1884,4,0.5560821585,0.1777559734,0.6477272727,0.1996732213,1
1885,4,0.555396295,0.1777559734,0.6505681818,0.2026118993,1
1886,4,0.5555275516,0.1786361644,0.6505681818,0.204535966,1
1887,4,0.6582684806,0.1777559734,0.6505681818,0.199692263,1
1888,4,0.6612772231,0.1751154005,0.6477272727,0.1963235831,1
1889,4,0.5568891116,0.1751154005,0.6477272727,0.203301096,1
1890,4,0.6550628527,0.1759955915,0.6420454545,0.1946337012,1
1891,4,0.680308559,0.1768757824,0.6477272727,0.1916626239,1
1892,4,0.615563749,0.1768757824,0.6477272727,0.1951100285,1
1893,4,0.6380336477,0.1759955915,0.6477272727,0.1970426213,1
1894,4,0.6022568803,0.1759955915,0.6477272727,0.1957591523,1
1895,4,0.6265754691,0.1759955915,0.6477272727,0.1961240713,1
1896,4,0.6478862394,0.1777559734,0.6477272727,0.1892434723,1
1897,4,0.632276828,0.1751154005,0.6477272727,0.1895782656,1
1898,4,0.6234641243,0.1759955915,0.6477272727,0.1852577837,1
1899,4,0.5538877642,0.1751154005,0.6477272727,0.1892983238,1
1900,4,0.6609278207,0.1768757824,0.6505681818,0.1783837214,1
1901,4,0.6235306772,0.1768757824,0.6477272727,0.1774731291,1
1902,4,0.5738573098,0.1768757824,0.6477272727,0.1831361947,1
1903,4,0.6579689929,0.1759955915,0.6477272727,0.1845717133,1
1904,4,0.614839987,0.1768757824,0.6477272727,0.1826862984,1
1905,4,0.5875228239,0.1786361644,0.6477272727,0.1853993177,1
1906,4,0.6323239696,0.1751154005,0.6477272727,0.1792968716,1
1907,4,0.6004368457,0.1751154005,0.6477272727,0.1822196341,1
1908,4,0.6180040194,0.1742358967,0.6477272727,0.1777456816,1
1909,4,0.6268749568,0.1759955915,0.6477272727,0.1736895102,1
1910,4,0.5525742698,0.1751154005,0.6477272727,0.176874878,1
1911,4,0.6650041814,0.1751154005,0.6477272727,0.1723162324,1
1912,4,0.6306573759,0.1768757824,0.6477272727,0.1715619528,1
1913,4,0.6348169277,0.1768757824,0.6420454545,0.17196325,1
1914,4,0.5536723915,0.1768757824,0.6420454545,0.1759014764,1
1915,4,0.6351358266,0.1777559734,0.6477272727,0.1706721075,1
1916,4,0.5643097519,0.1759955915,0.6420454545,0.1753751291,1
1917,4,0.6561360171,0.1759955915,0.6420454545,0.1808574403,1
1918,4,0.6360093325,0.1768757824,0.6420454545,0.1789308157,1
1919,4,0.6122333345,0.1795163553,0.6477272727,0.1812851686,1
1920,4,0.6017725243,0.1900772727,0.6477272727,0.1756402922,1
1921,4,0.6498412287,0.1891970817,0.6420454545,0.1774222565,1
1922,4,0.654441693,0.1865571959,0.6420454545,0.183827665,1
1923,4,0.5762421195,0.1821562411,0.6420454545,0.1807934942,1
1924,4,0.6843571894,0.1803965463,0.6420454545,0.1780622858,1
1925,4,0.6835502363,0.1786361644,0.6420454545,0.1880543593,1
1926,4,0.590661899,0.1786361644,0.6420454545,0.1816722556,1
1927,4,0.4694026455,0.1768757824,0.6420454545,0.181899051,1
1928,4,0.6335625921,0.1777559734,0.6420454545,0.1773836046,1
1929,4,0.6793019474,0.1768757824,0.6420454545,0.1838916111,1
1930,4,0.6403574506,0.1795163553,0.6420454545,0.1772667964,1
1931,4,0.666737328,0.1795163553,0.6420454545,0.1958088882,1
1932,4,0.6445530519,0.1768757824,0.6420454545,0.2006747591,1
1933,4,0.5317127311,0.1768757824,0.6420454545,0.200139033,1
1934,4,0.6504817997,0.1759955915,0.6420454545,0.1955155888,1
1935,4,0.6360842044,0.1742358967,0.6477272727,0.1835895014,1
1936,4,0.5460382275,0.1742358967,0.6477272727,0.1890360028,1
1937,4,0.661670994,0.1795163553,0.6477272727,0.225778572,1
1938,4,0.5692623916,0.1812760501,0.6477272727,0.2273581825,1
1939,4,0.6790329631,0.1707151328,0.6477272727,0.233796843,1
1940,4,0.7470194504,0.1812760501,0.6477272727,0.2376824915,1
1941,4,0.6275293929,0.185677005,0.6477272727,0.2404003423,1
1942,4,0.6362145371,0.1900772727,0.6363636364,0.2447688548,1
1943,4,0.5848976842,0.2067995267,0.6363636364,0.2428015889,1
1944,6,0.6118932595,0.3179028506,0.125,0.2141189266,1
1945,6,0.8117019936,0.3029402913,0.125,0.2213539575,1
1946,6,0.6861420996,0.3020601003,0.1306818182,0.2252847661,1
1947,6,0.6749362671,0.3046999861,0.1306818182,0.2798478595,1
1948,6,0.6738398259,0.3002997184,0.1193181818,0.3190343629,1
1949,6,0.595985117,0.3046999861,0.125,0.3405171789,1
1950,6,0.6085303252,0.3099811319,0.125,0.3648248772,1
1951,6,0.5991836859,0.306460368,0.125,0.3664117918,1
1952,6,0.6167011978,0.3038197952,0.125,0.3697749297,1
1953,6,0.6071730512,0.2967789546,0.125,0.3993627843,1
1954,6,0.6246648483,0.3002997184,0.125,0.4006223802,1
1955,6,0.6269029389,0.2976591455,0.125,0.3918579294,1
1956,6,0.6144031076,0.2985393365,0.125,0.3940975203,1
1957,6,0.6298005082,0.2985393365,0.125,0.3999277836,1
1958,6,0.624962823,0.2932581907,0.1193181818,0.3984666581,1
1959,6,0.6028429157,0.2932581907,0.1193181818,0.3994450616,1
1960,6,0.6313024846,0.2914978088,0.1193181818,0.3948517431,1
1961,6,0.6023883055,0.2923779998,0.1193181818,0.3946779519,1
1962,6,0.607848243,0.2906176178,0.1193181818,0.3861054815,1
1963,6,0.5887903525,0.2862173501,0.1193181818,0.389562748,1
1964,6,0.703326762,0.287096854,0.1193181818,0.3919757607,1
1965,6,0.6174100853,0.2774154405,0.1193181818,0.3903214612,1
1966,6,0.6277913182,0.2765352496,0.1193181818,0.3843053281,1
1967,6,0.639663268,0.2738946767,0.1193181818,0.3794713165,1
1968,6,0.6377258409,0.2756550586,0.1193181818,0.3836043369,1
1969,6,0.6364673879,0.2738946767,0.1136363636,0.3879415868,1
1970,6,0.6509347283,0.2765352496,0.125,0.3813403612,1
1971,6,0.6321878391,0.2844569682,0.1193181818,0.3676023542,1
1972,6,0.6278908114,0.2932581907,0.1193181818,0.384220635,1
1973,6,0.6059599739,0.2941383817,0.1193181818,0.3460029006,1
1974,6,0.596449222,0.2923779998,0.1193181818,0.35144656,1
1975,6,0.6373773625,0.3046999861,0.1193181818,0.3437602403,1
1976,6,0.6408356726,0.3046999861,0.1193181818,0.3360929054,1
1977,6,0.5917461555,0.3046999861,0.125,0.3294515216,1
1978,6,0.7097733108,0.2897374269,0.1136363636,0.3307289371,1
1979,6,0.5668541376,0.287096854,0.1193181818,0.3246677859,1
1980,6,0.5518976494,0.2818163953,0.1193181818,0.2952419848,1
1981,6,0.6065831502,0.2747748676,0.1136363636,0.3156518707,1
1982,6,0.6346472679,0.2765352496,0.1193181818,0.3184738257,1
1983,6,0.6105541357,0.2756550586,0.1193181818,0.3065677748,1
1984,6,0.6160092836,0.2756550586,0.1136363636,0.3091024556,1
1985,6,0.5847860906,0.2765352496,0.1136363636,0.2946021829,1
1986,6,0.5505536516,0.2703745999,0.1193181818,0.3156056306,1
1987,6,0.6376195416,0.269494409,0.1193181818,0.3114494191,1
1988,6,0.6088872901,0.2712547909,0.1193181818,0.3025053509,1
1989,6,0.6333595716,0.269494409,0.1193181818,0.297474499,1
1990,6,0.6050383182,0.2721342947,0.1193181818,0.3141925641,1
1991,6,0.6193794445,0.2721342947,0.1136363636,0.3164085376,1
1992,6,0.6172386618,0.2703745999,0.1136363636,0.3120491765,1
1993,6,0.58700351,0.2721342947,0.1136363636,0.3067625972,1
1994,6,0.6123046769,0.268614218,0.1136363636,0.317825924,1
1995,6,0.6765205938,0.267734027,0.1193181818,0.3175608177,1
1996,6,0.6385748941,0.2668538361,0.1193181818,0.3230296292,1
1997,6,0.6266952142,0.2615726903,0.1193181818,0.3261210673,1
1998,6,0.6419590045,0.2606924993,0.1193181818,0.3279246312,1
1999,6,0.646195193,0.2642132632,0.1079545455,0.3272136928,1
2000,6,0.6010774166,0.267734027,0.1193181818,0.3271115211,1
2001,6,0.5866223442,0.2659736451,0.1193181818,0.3251738126,1
2002,6,0.619186256,0.2606924993,0.1136363636,0.319141565,1
2003,6,0.596761651,0.2554113536,0.1136363636,0.3203176046,1
2004,6,0.6272518377,0.2615726903,0.1136363636,0.3277887812,1
2005,6,0.6022713345,0.2598123084,0.1136363636,0.3311236408,1
2006,6,0.5805671294,0.2545318497,0.1193181818,0.3306929283,1
2007,6,0.6293089246,0.2501308949,0.1193181818,0.3256598028,1
2008,6,0.6223696997,0.2501308949,0.1193181818,0.3265514671,1
2009,6,0.6516141217,0.248370513,0.1136363636,0.3342883184,1
2010,6,0.571543675,0.2518912768,0.1136363636,0.3391126386,1
2011,6,0.5963451068,0.2527714678,0.1193181818,0.3170618961,1
2012,6,0.5952056425,0.2510110859,0.1136363636,0.313048327,1
2013,6,0.663924547,0.2439695582,0.1136363636,0.3300517622,1
2014,6,0.6132001996,0.2404487943,0.1136363636,0.3279331573,1
2015,6,0.5881691927,0.2386890995,0.1136363636,0.3287073313,1
2016,6,0.6121667817,0.2448497491,0.1193181818,0.3077413134,1
2017,6,0.590690134,0.2430893672,0.1193181818,0.3390305034,1
2018,6,0.5619877138,0.2422091762,0.1079545455,0.3422648965,1
2019,6,0.6387806023,0.2422091762,0.1079545455,0.3446009182,1
2020,6,0.6187897121,0.2386890995,0.1079545455,0.3422900487,1
2021,6,0.7119072873,0.2395686034,0.1136363636,0.3370434853,1
2022,6,0.6305774626,0.2378089085,0.1136363636,0.3237301089,1
2023,6,0.58534574,0.2369287176,0.1136363636,0.3254415335,1
2024,6,0.7005295267,0.2360485266,0.1193181818,0.3260572917,1
2025,6,0.5614498294,0.2334079537,0.1193181818,0.3303747042,1
2026,6,0.5952116921,0.2316475718,0.1193181818,0.3267379339,1
2027,6,0.6284075209,0.2290069989,0.1193181818,0.3251063423,1
2028,6,0.646312164,0.2298871899,0.1136363636,0.3330255395,1
2029,6,0.6607540435,0.2298871899,0.1136363636,0.341702171,1
2030,6,0.6454338686,0.2290069989,0.1193181818,0.3436369522,1
2031,6,0.4946685195,0.228126808,0.1136363636,0.3366758664,1
2032,6,0.6145573892,0.227246617,0.1136363636,0.3478630212,1
2033,6,0.5899806565,0.228126808,0.1136363636,0.3463412464,1
2034,6,0.6457605819,0.2290069989,0.1136363636,0.3483110986,1
2035,6,0.5840630851,0.228126808,0.1193181818,0.3461214709,1
2036,6,0.6327963095,0.2237258532,0.1079545455,0.340883121,1
2037,6,0.6378196193,0.226366426,0.1079545455,0.3427720601,1
2038,6,0.5888363183,0.2210859674,0.125,0.3177392983,1
2039,6,0.6191313843,0.2166850126,0.1193181818,0.3180716759,1
2040,6,0.5935730805,0.2184453945,0.1136363636,0.3243345557,1
2041,6,0.6565895346,0.2140444397,0.1136363636,0.3230252809,1
2042,6,0.625369199,0.2114038668,0.1136363636,0.323022382,1
2043,6,0.7960882963,0.2114038668,0.1193181818,0.3320947118,1
2044,6,0.5819061689,0.2105236758,0.1136363636,0.3297571839,1
2045,6,0.6536051605,0.2140444397,0.1136363636,0.3307901264,1
2046,6,0.6163109553,0.2078831029,0.1136363636,0.3366499469,1
2047,6,0.7478901833,0.2078831029,0.1136363636,0.3326525207,1
2048,6,0.5507735622,0.2087632939,0.1193181818,0.3347644184,1
2049,6,0.6422887427,0.2026026443,0.1136363636,0.3308404306,1
2050,6,0.6010663245,0.2078831029,0.1136363636,0.3178202967,1
2051,6,0.6589350172,0.2131642487,0.1193181818,0.3172221876,1
2052,6,0.6348802028,0.2114038668,0.1193181818,0.3146107715,1
2053,6,0.6108606824,0.2131642487,0.1193181818,0.2972973541,1
2054,6,0.598537317,0.2131642487,0.1193181818,0.2941990667,1
2055,6,0.5810752669,0.2228456622,0.1136363636,0.3011018053,1
2056,6,0.6267839513,0.2166850126,0.1136363636,0.3030361034,1
2057,6,0.6358341266,0.2078831029,0.1193181818,0.3071981411,1
2058,6,0.882501598,0.2061234081,0.1193181818,0.31831487,1
2059,6,0.5272068018,0.2052432172,0.1193181818,0.3195330571,1
2060,6,0.646746774,0.2034828352,0.1193181818,0.3260706209,1
2061,6,0.9761913423,0.1990818804,0.1193181818,0.3356214664,1
2062,6,0.6166785089,0.2061234081,0.1193181818,0.344786845,1
2063,6,0.5650104057,0.2087632939,0.125,0.3349028829,1
2064,6,0.5971588671,0.1973214985,0.125,0.2806448835,1
2065,6,0.5545257297,0.1964413075,0.125,0.2788719001,1
2066,6,0.6191394505,0.1946809256,0.1193181818,0.3080713604,1
2067,6,0.5785966776,0.1946809256,0.125,0.3100582648,1
2068,6,0.6328009316,0.1973214985,0.125,0.3009713269,1
2069,6,0.6042618685,0.2043630262,0.125,0.3248670135,1
2070,6,0.6499077815,0.2043630262,0.1193181818,0.3249552591,1
2071,6,0.5598100409,0.2008422624,0.125,0.3187486518,1
2072,6,0.5821856564,0.1955611166,0.125,0.3430293223,1
2073,6,0.5324120405,0.2026026443,0.125,0.3534229204,1
2074,6,0.5621671202,0.1990818804,0.125,0.3487808323,1
2075,6,0.6379960853,0.1982016895,0.125,0.3447313682,1
2076,6,0.6389515221,0.1973214985,0.1306818182,0.3404165704,1
2077,6,0.5943969247,0.2008422624,0.1306818182,0.3351503685,1
2078,6,0.5899298179,0.2008422624,0.1306818182,0.3392617041,1
2079,6,0.5481013652,0.1955611166,0.125,0.3350198048,1
2080,6,0.6513863136,0.1938007347,0.125,0.310339855,1
2081,6,0.6251302134,0.1990818804,0.125,0.2894207877,1
2082,6,0.6623753447,0.2061234081,0.125,0.2994217284,1
2083,6,0.6176999095,0.207002912,0.125,0.2956362337,1
2084,6,0.668361318,0.2043630262,0.125,0.2810848326,1
2085,6,0.5769257989,0.207002912,0.125,0.2812127248,1
2086,6,0.6408850837,0.2017224533,0.1306818182,0.2962780819,1
2087,6,0.6027906473,0.1999620714,0.1306818182,0.2828049823,1
2088,6,0.5869783009,0.2008422624,0.125,0.2820318031,1
2089,6,0.6156303018,0.2034828352,0.1306818182,0.3182281307,1
2090,6,0.6473205403,0.2034828352,0.1306818182,0.3221169622,1
2091,6,0.6349255807,0.2017224533,0.1306818182,0.3207048337,1
2092,6,0.5398589826,0.2008422624,0.1306818182,0.324716868,1
2093,6,0.559100733,0.2008422624,0.125,0.3233081499,1
2094,6,0.7873305486,0.1946809256,0.125,0.3262050498,1
2095,6,0.9309169317,0.1955611166,0.125,0.3241397049,1
2096,6,0.6282723144,0.1938007347,0.125,0.3284736012,1
2097,6,0.6154387106,0.1999620714,0.125,0.3368311843,1
2098,6,0.6174171443,0.1982016895,0.1306818182,0.3336302137,1
2099,6,0.5669922846,0.1920403527,0.1306818182,0.336084294,1
2100,6,0.5967487098,0.1938007347,0.125,0.3187977908,1
2101,6,0.6126505498,0.1955611166,0.125,0.3333290703,1
2102,6,0.6197555689,0.1955611166,0.1306818182,0.3352055327,1
2103,6,0.6109958046,0.1982016895,0.1306818182,0.3347159898,1
2104,6,0.580134536,0.1938007347,0.1306818182,0.3336188171,1
2105,6,0.6465662749,0.1946809256,0.1193181818,0.3321338468,1
2106,6,0.6577748805,0.1920403527,0.1193181818,0.3259600652,1
2107,6,0.6171075727,0.1920403527,0.1306818182,0.3185275404,1
2108,6,0.6428319214,0.189400467,0.1306818182,0.3114930445,1
2109,6,0.6565582748,0.1929205437,0.1306818182,0.2931084023,1
2110,6,0.6615748617,0.2017224533,0.125,0.3005493111,1
2111,6,0.6234493352,0.2017224533,0.1306818182,0.2984573646,1
2112,6,0.6259873339,0.2008422624,0.1306818182,0.3190787557,1
2113,6,0.6634454843,0.2008422624,0.1306818182,0.3200106634,1
2114,6,0.8046594942,0.1999620714,0.1306818182,0.3137179421,1
2115,6,0.5417585112,0.1982016895,0.1306818182,0.3077108466,1
2116,6,0.6233796732,0.1990818804,0.1306818182,0.3040589566,1
2117,6,0.5732703504,0.1990818804,0.1306818182,0.3038114142,1
2118,6,0.6504283555,0.1982016895,0.1306818182,0.3027851221,1
2119,6,0.5474519704,0.1999620714,0.1306818182,0.3037289095,1
2120,6,0.6212913253,0.1973214985,0.1306818182,0.3096015192,1
2121,6,0.5988337799,0.1990818804,0.1335227273,0.306201861,1
2122,6,0.6244060321,0.1990818804,0.1335227273,0.3090387937,1
2123,6,0.5763762334,0.1982016895,0.1335227273,0.3120561964,1
2124,6,0.6258572531,0.1982016895,0.1335227273,0.3100507618,1
2125,6,0.6134350667,0.1982016895,0.1306818182,0.3135954782,1
2126,6,0.5796714392,0.1946809256,0.1306818182,0.317300344,1
2127,6,0.5657086214,0.1946809256,0.1335227273,0.3229936773,1
2128,6,0.6468657626,0.1955611166,0.1335227273,0.3212324599,1
2129,6,0.6265197566,0.1946809256,0.1335227273,0.3222032468,1
2130,6,0.6477522097,0.1964413075,0.1335227273,0.3165290121,1
2131,6,0.6319599456,0.2008422624,0.1335227273,0.3129994438,1
2132,6,0.5814816418,0.2043630262,0.1335227273,0.3209114506,1
2133,6,0.6254801204,0.2052432172,0.1335227273,0.3256126248,1
2134,6,0.5419683368,0.2061234081,0.1335227273,0.3249910689,1
2135,6,0.8419028597,0.2078831029,0.1306818182,0.3263821094,1
2136,6,0.5836748603,0.2017224533,0.1306818182,0.327623374,1
2137,6,0.5464546873,0.2008422624,0.1306818182,0.3284725781,1
2138,6,0.5981860656,0.1990818804,0.1306818182,0.326498065,1
2139,6,0.6201300129,0.1999620714,0.125,0.3063771302,1
2140,6,0.5437471963,0.1982016895,0.125,0.3053880405,1
2141,6,0.5851843993,0.1973214985,0.125,0.3102772162,1
2142,6,0.4958444536,0.1973214985,0.1335227273,0.32540669,1
2143,6,0.6087461172,0.1964413075,0.1335227273,0.3226820467,1
2144,6,0.6225507877,0.1964413075,0.1335227273,0.3272764168,1
2145,6,0.6571754003,0.1938007347,0.1335227273,0.3309927644,1
2146,6,0.610103644,0.1902806579,0.1335227273,0.319198406,1
2147,6,0.9153560063,0.1911601618,0.1335227273,0.3293993132,1
2148,6,0.5628548328,0.1902806579,0.1335227273,0.3339048693,1
2149,6,0.6044937952,0.1929205437,0.1335227273,0.3336394219,1
2150,6,0.5561542574,0.1973214985,0.125,0.332006381,1
2151,6,0.7750717194,0.1955611166,0.125,0.3394117642,1
2152,6,0.6478348118,0.1920403527,0.1335227273,0.3444451171,1
2153,6,0.8505664085,0.1955611166,0.125,0.3364691926,1
2154,6,0.5263668253,0.1973214985,0.125,0.3399135278,1
2155,6,0.59193447,0.1982016895,0.125,0.3361937413,1
2156,6,0.658602253,0.1973214985,0.1335227273,0.3361367298,1
2157,6,0.652272256,0.1938007347,0.1306818182,0.3330889172,1
2158,6,0.6419011069,0.207002912,0.1335227273,0.3185444506,1
2159,6,0.5782034114,0.2034828352,0.1335227273,0.3115821711,1
2160,6,0.607861772,0.2026026443,0.1335227273,0.3009537346,1
2161,6,0.4811794713,0.2026026443,0.1335227273,0.2654342408,1
2162,6,0.74057517,0.2034828352,0.1306818182,0.2668930074,1
2163,6,0.8389231087,0.2017224533,0.1306818182,0.2819439838,1
2164,6,0.4987154694,0.2026026443,0.1306818182,0.2868072401,1
2165,6,0.6292098519,0.1982016895,0.1335227273,0.2839859955,1
2166,6,0.5878283624,0.1999620714,0.1335227273,0.2879445425,1
2167,6,0.6441431474,0.2034828352,0.1335227273,0.2846822974,1
2168,6,0.5601668384,0.2043630262,0.1335227273,0.2873967377,1
2169,6,0.7723864137,0.2096434849,0.1335227273,0.2873671804,1
2170,6,0.5655271141,0.2122840578,0.1335227273,0.2881332261,1
2171,6,0.6357421972,0.2175652035,0.1335227273,0.2917658186,1
2172,6,0.6132778446,0.2149246306,0.1335227273,0.2922502458,1
2173,6,0.5920221989,0.2078831029,0.1335227273,0.2905144647,1
2174,6,0.6909701202,0.2078831029,0.1335227273,0.294925608,1
2175,6,0.6299603359,0.2087632939,0.1306818182,0.2987395231,1
2176,6,0.6089286339,0.2087632939,0.1306818182,0.3003615938,1
2177,6,0.6509718703,0.2149246306,0.1335227273,0.3055561476,1
2178,6,0.6301700783,0.2166850126,0.1306818182,0.3119136677,1
2179,6,0.5905328264,0.2105236758,0.1335227273,0.3220692158,1
2180,6,0.7321995975,0.2166850126,0.1335227273,0.3234158636,1
2181,6,0.6295499268,0.2052432172,0.1335227273,0.3184719784,1
2182,6,0.6339141785,0.2061234081,0.1335227273,0.3201983807,1
2183,6,0.6263866509,0.2078831029,0.1335227273,0.3156761134,1
2184,6,0.6289168342,0.2096434849,0.1335227273,0.3110931683,1
2185,6,0.6092140046,0.2078831029,0.1335227273,0.3139806894,1
2186,6,0.6746051834,0.2105236758,0.1335227273,0.3083791827,1
2187,6,0.7400689659,0.2105236758,0.1335227273,0.3118856735,1
2188,6,0.6280797138,0.2122840578,0.1335227273,0.3278025652,1
2189,6,0.5616790661,0.2105236758,0.1306818182,0.3220681927,1
2190,6,0.6394673065,0.2096434849,0.1335227273,0.3037476102,1
2191,6,0.6517426064,0.2122840578,0.1335227273,0.3042415014,1
2192,6,0.5902424143,0.2158048216,0.1306818182,0.2997630016,1
2193,6,0.6529129945,0.2228456622,0.1306818182,0.2977430726,1
2194,6,0.574172931,0.2334079537,0.1306818182,0.2973045445,1
2195,6,0.6367527575,0.2386890995,0.1335227273,0.2952619644,1
2196,6,0.6053460407,0.2430893672,0.1335227273,0.2974541215,1
2197,6,0.5974765049,0.2386890995,0.1335227273,0.2986898441,1
2198,6,0.654441693,0.2360485266,0.1335227273,0.2945814359,1
2199,6,0.6360751288,0.2325277628,0.1335227273,0.291403628,1
2200,6,0.6835454467,0.2228456622,0.1335227273,0.287670427,1
2201,6,0.6293069081,0.2193255855,0.1335227273,0.2933712349,1
2202,6,0.6245705651,0.2184453945,0.1335227273,0.2947243909,1
2203,6,0.5839219121,0.2184453945,0.1335227273,0.3014426522,1
2204,6,0.6572637181,0.2202057764,0.1335227273,0.2993995604,1
2205,6,0.5661936506,0.2228456622,0.1335227273,0.3130355662,1
2206,6,0.6414084307,0.2202057764,0.1335227273,0.3108660887,1
2207,6,0.590419721,0.2184453945,0.1335227273,0.313098006,1
2208,6,0.5805529281,0.2202057764,0.1335227273,0.3104849131,1
2209,6,0.6563402976,0.2184453945,0.1335227273,0.3076296777,1
2210,6,0.5651872909,0.2184453945,0.1420454545,0.3167643337,1
2211,6,0.6529200535,0.2158048216,0.1420454545,0.3147228903,1
2212,6,0.6042774985,0.2175652035,0.1420454545,0.3159799283,1
2213,6,0.651412531,0.2131642487,0.1420454545,0.3149546594,1
2214,6,0.7696143875,0.2131642487,0.1335227273,0.3173483462,1
2215,6,0.5006199551,0.2140444397,0.1420454545,0.319328117,1
2216,6,0.5508864158,0.2140444397,0.1420454545,0.317274055,1
2217,6,0.5611991637,0.2140444397,0.1420454545,0.3186599799,1
2218,6,0.6243819988,0.2149246306,0.1420454545,0.3144200701,1
2219,6,0.6132094427,0.2140444397,0.1420454545,0.3150399208,1
2220,6,0.6489248672,0.2149246306,0.1420454545,0.31253187,1
2221,6,0.6011291803,0.2131642487,0.1420454545,0.3149629582,1
2222,6,0.6181613258,0.2087632939,0.1420454545,0.314388097,1
2223,6,0.5922018571,0.2087632939,0.1420454545,0.313014393,1
2224,6,0.6399140169,0.2087632939,0.1335227273,0.3222412166,1
2225,6,0.6623776131,0.2078831029,0.1335227273,0.3232145613,1
2226,6,0.6422272324,0.2078831029,0.1335227273,0.3213128899,1
2227,6,0.6164158271,0.2087632939,0.1335227273,0.3235013808,1
2228,6,0.6494243495,0.2105236758,0.1335227273,0.3189308271,1
2229,6,0.6462425864,0.2105236758,0.1335227273,0.3172875548,1
2230,6,0.5952540441,0.2096434849,0.1420454545,0.3159348819,1
2231,6,0.5834560423,0.2122840578,0.1420454545,0.3138314819,1
2232,6,0.6288031398,0.2114038668,0.1335227273,0.3175030673,1
2233,6,0.5810550991,0.2105236758,0.1335227273,0.3113669997,1
2234,6,0.6100771737,0.2096434849,0.1335227273,0.3123513431,1
2235,6,0.6113023514,0.207002912,0.1335227273,0.3074695567,1
2236,6,0.5726852402,0.2061234081,0.1335227273,0.3092843467,1
2237,6,0.5870307367,0.2096434849,0.1420454545,0.3060232383,1
2238,6,0.6124478665,0.2105236758,0.1420454545,0.3038914747,1
2239,6,0.6352099421,0.2087632939,0.1420454545,0.2974621361,1
2240,6,0.6199390928,0.2034828352,0.1477272727,0.2981624737,1
2241,6,0.6495389679,0.2052432172,0.1420454545,0.293394426,1
2242,6,0.5753829835,0.207002912,0.1420454545,0.297077607,1
2243,6,0.6594008027,0.207002912,0.1420454545,0.2931658116,1
2244,6,0.5906528234,0.2122840578,0.1420454545,0.2922472616,1
2245,6,0.6190295374,0.2184453945,0.1420454545,0.2862795285,1
2246,6,0.6197833835,0.2228456622,0.1420454545,0.2907615524,1
2247,6,0.6221441599,0.2334079537,0.1335227273,0.297341349,1
2248,6,0.6421562261,0.226366426,0.1420454545,0.295987113,1
2249,6,0.6092976992,0.2254862351,0.1420454545,0.3009399506,1
2250,6,0.5814480292,0.2228456622,0.1420454545,0.3065811324,1
2251,6,0.5978032194,0.2210859674,0.1420454545,0.3036119024,1
2252,6,0.6211967061,0.2175652035,0.1420454545,0.3028337496,1
2253,6,0.5702362314,0.2184453945,0.1420454545,0.3029127585,1
2254,6,0.546132006,0.2175652035,0.1420454545,0.3051680091,1
2255,6,0.6365157895,0.2149246306,0.1335227273,0.305946503,1
2256,6,0.5832805858,0.2140444397,0.1420454545,0.3083217733,1
2257,6,0.6448651447,0.2158048216,0.1420454545,0.3063793469,1
2258,6,0.6045492559,0.2140444397,0.1420454545,0.3075929584,1
2259,6,0.6111185746,0.2131642487,0.1420454545,0.3067938881,1
2260,6,0.6230055654,0.2096434849,0.1420454545,0.3056294725,1
2261,6,0.6389256408,0.2114038668,0.1420454545,0.3036198601,1
2262,6,0.6530541674,0.2114038668,0.1335227273,0.2971522107,1
2263,6,0.550154419,0.2114038668,0.1335227273,0.3115910952,1
2264,6,0.7731192513,0.2122840578,0.1335227273,0.3118596687,1
2265,6,0.5106573318,0.2140444397,0.1335227273,0.3132540913,1
2266,6,0.5816421417,0.2140444397,0.1335227273,0.3097406375,1
2267,6,0.5893459677,0.2131642487,0.1335227273,0.3068593689,1
2268,6,0.6276269538,0.2140444397,0.1335227273,0.3138066992,1
2269,6,0.6007446525,0.2149246306,0.1420454545,0.3138708443,1
2270,6,0.5745379633,0.2114038668,0.1420454545,0.3159432659,1
2271,6,0.6512915257,0.2122840578,0.1335227273,0.3182348095,1
2272,6,0.6409707959,0.2087632939,0.1335227273,0.3165705344,1
2273,6,0.6210404922,0.2078831029,0.1335227273,0.3133018662,1
2274,6,0.5800245386,0.207002912,0.1335227273,0.3146878479,1
2275,6,0.5976116282,0.2105236758,0.1335227273,0.3107320577,1
2276,6,0.6236811775,0.2105236758,0.1335227273,0.3069918084,1
2277,6,0.5783879435,0.2096434849,0.1335227273,0.3032302153,1
2278,6,0.6663546493,0.2122840578,0.1420454545,0.3028865264,1
2279,6,0.6484337872,0.2149246306,0.1420454545,0.3041632598,1
2280,6,0.6469332395,0.2158048216,0.1420454545,0.3044022476,1
2281,6,0.5969057644,0.2149246306,0.1420454545,0.306924736,1
2282,6,0.6182762814,0.2122840578,0.1335227273,0.3132138479,1
2283,6,0.5981642174,0.2122840578,0.1335227273,0.3152937157,1
2284,6,0.630211422,0.2166850126,0.1335227273,0.309172512,1
2285,6,0.5797564782,0.2149246306,0.1335227273,0.3035240547,1
2286,6,0.7317871718,0.2149246306,0.1335227273,0.3253564426,1
2287,6,0.6068322198,0.2140444397,0.1335227273,0.3277668975,1
2288,6,0.5565334067,0.2140444397,0.1335227273,0.3296336969,1
2289,6,0.6260377522,0.2105236758,0.1420454545,0.3190977974,1
2290,6,0.6086496499,0.207002912,0.1477272727,0.319956096,1
2291,6,0.6001204679,0.2096434849,0.1477272727,0.3158700263,1
2292,6,0.7633483378,0.2158048216,0.1477272727,0.3151656531,1
2293,6,0.575639447,0.2175652035,0.1335227273,0.3130480713,1
2294,6,0.5468731627,0.2149246306,0.1420454545,0.3109273348,1
2295,6,0.596886605,0.2140444397,0.1420454545,0.3091995115,1
2296,6,0.5842153502,0.2087632939,0.1420454545,0.2960568853,1
2297,6,0.636206218,0.207002912,0.1420454545,0.298621976,1
2298,6,0.6451111883,0.2087632939,0.1420454545,0.3102944106,1
2299,6,0.5700305221,0.2078831029,0.1335227273,0.3172477377,1
2300,6,0.6535855818,0.2078831029,0.1335227273,0.3153185837,1
2301,6,0.6368948545,0.2096434849,0.1420454545,0.3164160406,1
2302,6,0.6488593227,0.2105236758,0.1420454545,0.3148537667,1
2303,6,0.6300195779,0.2078831029,0.1420454545,0.3145685671,1
2304,6,0.6335148615,0.2078831029,0.1420454545,0.3124001127,1
2305,6,0.6083862117,0.2087632939,0.1335227273,0.3140329263,1
2306,6,0.623517736,0.2131642487,0.1335227273,0.3090132152,1
2307,6,0.6349269251,0.2246060441,0.1335227273,0.3097554162,1
2308,6,0.5826543836,0.2237258532,0.1420454545,0.3045199084,1
2309,6,0.5909318073,0.2237258532,0.1420454545,0.3019994663,1
2310,6,0.6378186111,0.2202057764,0.1335227273,0.3019493325,1
2311,6,0.6528676176,0.2166850126,0.1420454545,0.3012922225,1
2312,6,0.6341014847,0.2131642487,0.1420454545,0.3041079251,1
2313,6,0.5923721048,0.2131642487,0.1420454545,0.3025911807,1
2314,6,0.6508226311,0.2122840578,0.1306818182,0.3043175546,1
2315,6,0.6718775257,0.2149246306,0.1306818182,0.3007319127,1
2316,6,0.5596674404,0.2131642487,0.1335227273,0.2929840626,1
2317,6,0.7838869444,0.2140444397,0.1335227273,0.309188257,1
2318,6,0.5945088543,0.2122840578,0.1477272727,0.3130554606,1
2319,6,0.5926002501,0.2140444397,0.1335227273,0.3166814879,1
2320,6,0.6352996875,0.2140444397,0.1335227273,0.3136930741,1
2321,6,0.639503356,0.2202057764,0.1335227273,0.3168890996,1
2322,6,0.5544672441,0.2184453945,0.1420454545,0.3264193687,1
2323,6,0.7378364202,0.2175652035,0.1420454545,0.3232683328,1
2324,6,0.5191639935,0.2166850126,0.1477272727,0.3208786249,1
2325,6,0.6558707297,0.2122840578,0.1477272727,0.3180181601,1
2326,6,0.651433707,0.2166850126,0.1420454545,0.3112329971,1
2327,6,0.6124629917,0.2140444397,0.1420454545,0.3069058364,1
2328,6,0.6862622641,0.2131642487,0.1335227273,0.3051075303,1
2329,6,0.6404859342,0.2096434849,0.1420454545,0.2998102364,1
2330,6,0.579259181,0.2087632939,0.1420454545,0.3051294141,1
2331,6,0.698480506,0.2105236758,0.1335227273,0.2916113249,1
2332,6,0.503687436,0.2140444397,0.1420454545,0.2930423531,1
2333,6,0.5234869025,0.2175652035,0.1420454545,0.2938029989,1
2334,6,0.598694456,0.2193255855,0.1420454545,0.2912158254,1
2335,6,0.5658891215,0.2193255855,0.1420454545,0.2936623175,1
2336,6,0.6246663612,0.2175652035,0.1420454545,0.2865080292,1
2337,6,0.5970237449,0.2158048216,0.1420454545,0.2958347224,1
2338,6,0.7532634002,0.2131642487,0.1420454545,0.2934086647,1
2339,6,0.5712627578,0.2078831029,0.1335227273,0.2948944875,1
2340,6,0.5759879243,0.207002912,0.1335227273,0.2968773847,1
2341,6,0.6032200484,0.2061234081,0.1335227273,0.2905549639,1
2342,6,0.6351857412,0.2175652035,0.1420454545,0.2973242968,1
2343,6,0.5762938832,0.2193255855,0.1335227273,0.2987688531,1
2344,6,0.5990465471,0.2202057764,0.1335227273,0.2978873065,1
2345,6,0.6127614711,0.2184453945,0.1335227273,0.2978695437,1
2346,6,0.6452555536,0.2210859674,0.1335227273,0.2962281756,1
2347,6,0.5995920784,0.2166850126,0.1335227273,0.2968508115,1
2348,6,0.6075723682,0.2184453945,0.1420454545,0.3126243219,1
2349,6,0.633700403,0.2202057764,0.1335227273,0.3150343504,1
2350,6,0.610177003,0.2166850126,0.1335227273,0.323519911,1
2351,6,0.6369060309,0.2114038668,0.1420454545,0.3206126092,1
2352,6,0.5991233513,0.2078831029,0.1420454545,0.3183905821,1
2353,6,0.5947354867,0.2184453945,0.1420454545,0.3214957757,1
2354,6,0.6269826004,0.2246060441,0.1420454545,0.3236010799,1
2355,6,0.6129772643,0.2219661583,0.1420454545,0.3223899125,1
2356,6,0.6058951016,0.2193255855,0.1420454545,0.3200400786,1
2357,6,0.6654803869,0.2193255855,0.1420454545,0.3411630344,1
2358,6,0.5935882069,0.2149246306,0.1420454545,0.3385600023,1
2359,6,0.6204378197,0.2175652035,0.1420454545,0.3364068949,1
2360,6,0.5901590558,0.2219661583,0.1335227273,0.3352255123,1
2361,6,0.5998774492,0.2228456622,0.1335227273,0.3369273877,1
2362,6,0.6439337412,0.2237258532,0.1335227273,0.3384428247,1
2363,6,0.6265651334,0.2175652035,0.1335227273,0.3350077261,1
2364,6,0.5962876295,0.2184453945,0.1335227273,0.3357809622,1
2365,6,0.6360660533,0.2122840578,0.1420454545,0.3159015162,1
2366,6,0.6575863141,0.2166850126,0.1420454545,0.3102641428,1
2367,6,0.6199390928,0.2158048216,0.1420454545,0.3112665901,1
2368,6,0.591485742,0.2140444397,0.1420454545,0.3131339011,1
2369,6,0.6230882517,0.2158048216,0.1420454545,0.3071754047,1
2370,6,0.7033580219,0.2158048216,0.1335227273,0.3038220719,1
2371,6,0.5692016366,0.2140444397,0.1420454545,0.3006282348,1
2372,6,0.6015211022,0.2122840578,0.1420454545,0.2961637179,1
2373,6,0.6083584813,0.2131642487,0.1420454545,0.2961054843,1
2374,6,0.5889278284,0.2140444397,0.1420454545,0.2969508516,1
2375,6,0.6262848051,0.2140444397,0.1420454545,0.29353542,1
2376,6,0.6526410696,0.2246060441,0.1477272727,0.2948675165,1
2377,6,0.533346805,0.2228456622,0.1477272727,0.2988370622,1
2378,6,0.5635527135,0.2219661583,0.1335227273,0.3014822135,1
2379,6,0.6184426635,0.2175652035,0.1335227273,0.298666312,1
2380,6,0.6055535991,0.2158048216,0.1335227273,0.296894579,1
2381,6,0.6364816723,0.2166850126,0.1477272727,0.2880421669,1
2382,6,0.5928964601,0.2140444397,0.1477272727,0.297416237,1
2383,6,0.6107950536,0.2158048216,0.1420454545,0.3031165334,1
2384,6,0.627882073,0.2158048216,0.1420454545,0.3059369821,1
2385,6,0.6080190785,0.2184453945,0.1420454545,0.3096783967,1
2386,6,0.5925394951,0.2175652035,0.1420454545,0.3080587133,1
2387,6,0.6158955891,0.2149246306,0.1420454545,0.3097071013,1
2388,6,0.6212217477,0.2140444397,0.1335227273,0.308047203,1
2389,6,0.6270219276,0.2122840578,0.1335227273,0.3054762008,1
2390,6,0.6299018504,0.2122840578,0.1335227273,0.3058359473,1
2391,6,0.6082741977,0.2140444397,0.1335227273,0.3075583233,1
2392,6,0.5586116707,0.2131642487,0.1335227273,0.2826319016,1
2393,6,0.5863591577,0.2131642487,0.1420454545,0.3011089104,1
2394,6,0.5862270603,0.2140444397,0.1420454545,0.3030627334,1
2395,6,0.6328351319,0.2105236758,0.1335227273,0.3049232235,1
2396,6,0.6406985339,0.2149246306,0.1335227273,0.3063581737,1
2397,6,0.6051845326,0.2202057764,0.1477272727,0.3095932773,1
2398,6,0.6136922025,0.2298871899,0.1335227273,0.3117856618,1
2399,6,0.5944170924,0.2650934542,0.1335227273,0.3127642927,1
2400,6,0.6335930955,0.2598123084,0.1335227273,0.3019529988,1
2401,6,0.6378014693,0.2580519265,0.1335227273,0.2978188132,1
2402,6,0.6258955709,0.2527714678,0.1420454545,0.2951929026,1
2403,6,0.6141590805,0.2430893672,0.1420454545,0.3009585945,1
2404,6,0.5949517834,0.2404487943,0.1420454545,0.3080605322,1
2405,6,0.6370760268,0.2369287176,0.1420454545,0.3049442831,1
2406,6,0.6422221899,0.2395686034,0.1420454545,0.304432828,1
2407,6,0.6129207953,0.2395686034,0.1335227273,0.3057579331,1
2408,6,0.6048635327,0.2325277628,0.1335227273,0.291341785,1
2409,6,0.6046793367,0.2351683357,0.1335227273,0.2920487445,1
2410,6,0.6253248305,0.2351683357,0.1335227273,0.28922588,1
2411,6,0.603672977,0.2360485266,0.1335227273,0.2904758697,1
2412,6,0.6111278177,0.2360485266,0.1335227273,0.2865743058,1
2413,6,0.6349306221,0.2342881447,0.1335227273,0.2811804675,1
2414,6,0.6197192677,0.2290069989,0.1420454545,0.2825541716,1
2415,6,0.6345222295,0.2290069989,0.1420454545,0.2867309879,1
2416,6,0.6237460499,0.2290069989,0.1420454545,0.2870659233,1
2417,6,0.624280153,0.2290069989,0.1335227273,0.2918326068,1
2418,6,0.6357524486,0.2290069989,0.1335227273,0.2894295412,1
2419,6,0.6034548312,0.2325277628,0.1335227273,0.2934042595,1
2420,6,0.6242357844,0.2351683357,0.1335227273,0.2970297469,1
2421,6,0.6462898954,0.2351683357,0.1335227273,0.2949192134,1
2422,6,0.6322735503,0.2307673809,0.1477272727,0.3008451683,1
2423,6,0.6170369868,0.2307673809,0.1420454545,0.3003200431,1
2424,6,0.6407567676,0.228126808,0.1420454545,0.2996603184,1
2425,6,0.6388501799,0.2254862351,0.1420454545,0.3006537564,1
2426,6,0.6037820493,0.2298871899,0.1420454545,0.2956898916,1
2427,6,0.6328416031,0.227246617,0.1420454545,0.2973056529,1
2428,6,0.5956967214,0.2254862351,0.1420454545,0.2945123741,1
2429,6,0.6317638166,0.2237258532,0.1420454545,0.2932196685,1
2430,8,0.593577899,0.0044016419,0.6477272727,0.3594141004,1
2431,8,0.5505206836,0.003521451,0.6477272727,0.3513815718,1
2432,8,0.5976561088,0.003521451,0.6477272727,0.3861928745,1
2433,8,0.6905502994,0.001761069,0.6505681818,0.3651334384,1
2434,8,0.4877083703,0.0,0.6505681818,0.3744681462,1
2435,8,0.6048992749,0.003521451,0.6505681818,0.3863197719,1
2436,8,0.4011219081,0.0052818329,0.6505681818,0.3829367397,1
2437,8,1.0,0.0070422148,0.6420454545,0.4010639871,1
2438,8,0.597890276,0.0061620238,0.6420454545,0.4028497408,1
2439,8,0.5013504678,0.0044016419,0.6505681818,0.407454238,1
2440,8,0.5947573626,0.0044016419,0.6505681818,0.4138448679,1
2441,8,0.5488248188,0.0044016419,0.6505681818,0.4168240451,1
2442,8,0.6759801604,0.0061620238,0.6420454545,0.405188415,1
2443,8,0.8425988636,0.0070422148,0.6420454545,0.4104993507,1
2444,8,0.8339938291,0.0079224058,0.6420454545,0.4119791579,1
2445,8,0.6248552637,0.0079224058,0.6420454545,0.3910552402,1
2446,8,0.6567907616,0.0079224058,0.6420454545,0.3897657082,1
2447,8,0.59361364,0.0044016419,0.6420454545,0.3990770164,1
2448,8,0.5498921287,0.0044016419,0.6420454545,0.4040596955,1
2449,8,0.5426625205,0.00264126,0.6420454545,0.3994615455,1
2450,8,0.6455963296,0.0061620238,0.6363636364,0.4017145793,1
2451,8,0.5992003806,0.0052818329,0.6363636364,0.3962743304,1
2452,8,0.6003884717,0.0070422148,0.6477272727,0.3874678174,1
2453,8,0.5387001614,0.0052818329,0.6477272727,0.3933745411,1
2454,8,0.6537022167,0.0044016419,0.6477272727,0.3976366663,1
2455,8,0.5823600503,0.0044016419,0.6420454545,0.4019683743,1
2456,8,0.6593900189,0.0052818329,0.6420454545,0.4079265865,1
2457,8,0.6441444918,0.0070422148,0.6420454545,0.4058554911,1
2458,8,0.5448858775,0.003521451,0.6420454545,0.4100874906,1
2459,8,0.6377726741,0.0061620238,0.6477272727,0.4065979289,1
2460,8,0.5902823016,0.0079224058,0.6477272727,0.4171270548,1
2461,8,0.657654716,0.0079224058,0.6477272727,0.4171405072,1
2462,8,0.5636550074,0.0088025967,0.6477272727,0.4122506209,1
2463,8,0.6352177853,0.0079224058,0.6505681818,0.4153644164,1
2464,8,0.671825538,0.0070422148,0.6505681818,0.4091882665,1
2465,8,0.6009997717,0.0052818329,0.6477272727,0.4174284067,1
2466,8,0.5235039322,0.003521451,0.6477272727,0.4030527578,1
2467,8,0.6348776261,0.0070422148,0.6477272727,0.4046069319,1
2468,8,0.5929924803,0.0088025967,0.6477272727,0.4065750504,1
2469,8,0.5892556621,0.0079224058,0.6477272727,0.4123952812,1
2470,8,0.5132227537,0.0088025967,0.6477272727,0.3998739267,1
2471,8,0.5540615403,0.0123240477,0.6477272727,0.395445447,1
2472,8,0.6525732844,0.0105636658,0.6505681818,0.3843271645,1
2473,8,0.7034677109,0.0123240477,0.6505681818,0.3833025113,1
2474,8,0.6380475129,0.0158448115,0.6505681818,0.3744588148,1
2475,8,0.7027873935,0.0176051935,0.6505681818,0.3810614141,1
2476,8,0.5855558185,0.0167250025,0.6477272727,0.3812005324,1
2477,8,0.6223891109,0.0167250025,0.6477272727,0.3741537683,1
2478,8,0.5181772413,0.0158448115,0.6505681818,0.354237262,1
2479,8,0.6914536931,0.0149646206,0.6505681818,0.313729026,1
2480,8,0.5966307016,0.0272886683,0.6505681818,0.3192935198,1
2481,8,0.6994166159,0.0149646206,0.65625,0.3159853756,1
2482,8,0.6060664141,0.0176051935,0.65625,0.3236192121,1
2483,8,0.5312437799,0.0184860715,0.65625,0.3281768629,1
2484,8,0.6538193009,0.0193662625,0.65625,0.3440506976,1
2485,8,0.6171930609,0.0167250025,0.6505681818,0.3698277918,1
2486,8,0.6677313067,0.0184860715,0.6505681818,0.3818011519,1
2487,8,0.6327516337,0.0184860715,0.65625,0.399649547,1
2488,8,0.6461743531,0.0184860715,0.65625,0.4179121233,1
2489,8,0.691417952,0.0167250025,0.65625,0.4212108888,1
2490,8,0.6186362712,0.0167250025,0.65625,0.4286989283,1
