ID,empatica_bvp,empatica_eda,empatica_temp,samsung_bvp,time,CL
4.0,-12.83,,,1878566.5,1708757860.6989584,1
4.0,17.765,0.403474,35.03,1886227.0,1708757860.7572916,1
4.0,27.15,,,1895215.0,1708757860.815625,1
4.0,25.166666666666668,,,1903507.0,1708757860.8739583,1
4.0,19.2,,,1906254.0,1708757860.9322917,1
4.0,17.875,,,1909917.0,1708757860.990625,1
4.0,18.115000000000002,0.404754,35.03,1915357.0,1708757861.0489583,1
4.0,0.09333333333333312,,,1920124.0,1708757861.1072917,1
4.0,-23.97,,,1921965.0,1708757861.165625,1
4.0,-25.855,,,1915151.0,1708757861.2239583,1
4.0,-9.729999999999999,0.403474,35.05,1903786.0,1708757861.2822917,1
4.0,10.026666666666666,,,1895731.0,1708757861.340625,1
4.0,18.58,,,1889348.0,1708757861.3989584,1
4.0,24.835,,,1885845.0,1708757861.4572916,1
4.0,36.98,0.403474,35.05,1883526.0,1708757861.515625,1
4.0,55.864999999999995,,,1881416.0,1708757861.5739584,1
4.0,59.6725,,,1879108.5,1708757861.6322916,1
4.0,45.4125,,,1878377.0,1708757861.690625,1
4.0,41.49,,,1879061.5,1708757861.7489583,1
4.0,62.66749999999999,0.407316,35.05,1880757.0,1708757861.8072917,1
4.0,143.38,,,1882041.5,1708757861.865625,1
4.0,238.7425,,,1884225.0,1708757861.9239583,1
4.0,235.18333333333337,,,1886083.5,1708757861.9822917,1
4.0,110.2225,0.407316,35.05,1882666.0,1708757862.040625,1
4.0,-79.83,,,1872750.0,1708757862.0989583,1
4.0,-188.33249999999998,,,1865567.0,1708757862.1572917,1
4.0,-179.5533333333333,,,1861992.0,1708757862.215625,1
4.0,-134.745,0.406035,35.05,1858266.5,1708757862.2739584,1
4.0,-117.535,,,1856693.0,1708757862.3322916,1
4.0,-127.66333333333334,,,1855194.0,1708757862.390625,1
4.0,-109.02000000000001,,,1854124.0,1708757862.4489584,1
4.0,-64.3675,0.406035,35.05,1854846.5,1708757862.5072916,1
4.0,-40.1975,,,1856712.0,1708757862.565625,1
4.0,-44.083333333333336,,,1859439.5,1708757862.6239583,1
4.0,-51.015,,,1862367.0,1708757862.6822917,1
4.0,-49.457499999999996,,,1865606.0,1708757862.740625,1
4.0,-36.2525,0.406035,35.05,1868744.0,1708757862.7989583,1
4.0,-24.506666666666664,,,1871288.0,1708757862.8572917,1
4.0,-23.99,,,1873896.5,1708757862.915625,1
4.0,-33.14,,,1868148.0,1708757862.9739583,1
4.0,-43.99,0.403474,35.05,1859902.5,1708757863.0322917,1
4.0,-58.54999999999999,,,1854750.0,1708757863.090625,1
4.0,-70.23500000000001,,,1851504.5,1708757863.1489584,1
4.0,-80.2675,,,1850710.0,1708757863.2072916,1
4.0,-99.57666666666667,0.403474,35.05,1850571.5,1708757863.265625,1
4.0,-95.22749999999999,,,1850117.0,1708757863.3239584,1
4.0,-32.75,,,1851326.0,1708757863.3822916,1
4.0,41.985,,,1853499.0,1708757863.440625,1
4.0,81.13999999999999,,,1855306.0,1708757863.4989583,1
4.0,99.5325,0.404754,35.05,1858944.5,1708757863.5572917,1
4.0,116.27,,,1862577.0,1708757863.615625,1
4.0,114.68,,,1866462.5,1708757863.6739583,1
4.0,114.12666666666667,,,1870602.0,1708757863.7322917,1
4.0,113.4425,0.403474,35.05,1874980.5,1708757863.790625,1
4.0,88.975,,,1879306.0,1708757863.8489583,1
4.0,52.6125,,,1878190.5,1708757863.9072917,1
4.0,42.36333333333334,,,1870659.0,1708757863.965625,1
4.0,12.649999999999999,0.402193,35.05,1866391.5,1708757864.0239584,1
4.0,-25.195,,,1863942.0,1708757864.0822916,1
4.0,-57.423333333333325,,,1863635.0,1708757864.140625,1
4.0,-92.0125,,,1864108.5,1708757864.1989584,1
4.0,-74.72,0.402193,35.05,1864154.0,1708757864.2572916,1
4.0,-61.75,,,1864752.5,1708757864.315625,1
4.0,-108.55333333333334,,,1866499.0,1708757864.3739583,1
4.0,-87.6725,,,1868322.0,1708757864.4322917,1
4.0,-22.247500000000002,,,1870553.0,1708757864.490625,1
4.0,4.465,0.402193,35.05,1873117.0,1708757864.5489583,1
4.0,7.376666666666668,,,1876654.0,1708757864.6072917,1
4.0,21.135,,,1880532.0,1708757864.665625,1
4.0,27.92,,,1884601.5,1708757864.7239583,1
4.0,23.0325,0.404754,35.05,1888064.0,1708757864.7822917,1
4.0,16.636666666666667,,,1882240.5,1708757864.840625,1
4.0,-0.7275,,,1876776.0,1708757864.8989584,1
4.0,-18.2525,,,1874467.5,1708757864.9572916,1
4.0,-44.830000000000005,0.406035,35.05,1873715.0,1708757865.015625,1
4.0,-44.875,,,1874680.0,1708757865.0739584,1
4.0,7.7675,,,1875645.0,1708757865.1322916,1
4.0,55.16499999999999,,,1876126.0,1708757865.190625,1
4.0,75.02333333333333,,,1878085.5,1708757865.2489583,1
4.0,84.12,0.422687,35.03,1881053.0,1708757865.3072917,1
4.0,81.34,,,1884916.0,1708757865.365625,1
4.0,85.2775,,,1888734.0,1708757865.4239583,1
4.0,96.66666666666667,,,1893285.5,1708757865.4822917,1
4.0,97.965,0.406035,35.03,1897529.0,1708757865.540625,1
4.0,79.28,,,1901942.5,1708757865.5989583,1
4.0,59.3425,,,1906319.0,1708757865.6572917,1
4.0,42.46333333333334,,,1903118.0,1708757865.715625,1
4.0,21.4125,0.407316,35.03,1898655.0,1708757865.7739584,1
4.0,-3.3275,,,1899244.0,1708757865.8322916,1
4.0,-34.14666666666667,,,1899313.0,1708757865.890625,1
4.0,-38.7475,,,1898346.0,1708757865.9489584,1
4.0,27.365000000000002,0.406035,35.03,1895135.0,1708757866.0072916,1
4.0,93.4375,,,1890103.0,1708757866.065625,1
4.0,128.71,,,1884296.5,1708757866.1239583,1
4.0,147.1175,,,1879268.0,1708757866.1822917,1
4.0,72.1975,,,1877005.0,1708757866.240625,1
4.0,-29.9775,0.406035,35.03,1877388.0,1708757866.2989583,1
4.0,-39.449999999999996,,,1878916.5,1708757866.3572917,1
4.0,-5.454999999999999,,,1880375.0,1708757866.415625,1
4.0,-13.307500000000001,,,1881344.0,1708757866.4739583,1
4.0,-45.27,0.406035,35.03,1884604.5,1708757866.5322917,1
4.0,-47.82,,,1887288.0,1708757866.590625,1
4.0,-51.46,,,1883874.0,1708757866.6489584,1
4.0,-64.7525,,,1878889.0,1708757866.7072916,1
4.0,-92.51333333333334,0.404754,35.03,1877397.0,1708757866.765625,1
4.0,-103.56750000000001,,,1876308.0,1708757866.8239584,1
4.0,-51.07,,,1876390.0,1708757866.8822916,1
4.0,17.2975,,,1876286.0,1708757866.940625,1
4.0,42.88333333333333,,,1876222.5,1708757866.9989583,1
4.0,46.68,0.404754,35.03,1876815.0,1708757867.0572917,1
4.0,41.642500000000005,,,1877840.0,1708757867.115625,1
4.0,44.1025,,,1880224.5,1708757867.1739583,1
4.0,59.90333333333333,,,1882517.0,1708757867.2322917,1
4.0,71.8975,0.399631,35.03,1884849.5,1708757867.290625,1
4.0,89.6625,,,1887530.0,1708757867.3489583,1
4.0,99.4,,,1890102.5,1708757867.4072917,1
4.0,124.69333333333334,,,1888368.0,1708757867.465625,1
4.0,171.735,0.388103,35.03,1881942.5,1708757867.5239584,1
4.0,205.8675,,,1877704.0,1708757867.5822916,1
4.0,296.63000000000005,,,1875512.0,1708757867.640625,1
4.0,415.6525,,,1875107.0,1708757867.6989584,1
4.0,554.4875000000001,0.38426,35.03,1875558.0,1708757867.7572916,1
4.0,574.8475,,,1875393.0,1708757867.815625,1
4.0,211.0666666666667,,,1876088.0,1708757867.8739583,1
4.0,-288.645,,,1877599.0,1708757867.9322917,1
4.0,-452.1375,,,1882044.0,1708757867.990625,1
4.0,-378.23249999999996,0.38426,35.03,1887787.0,1708757868.0489583,1
4.0,-289.65000000000003,,,1893157.0,1708757868.1072917,1
4.0,-242.38750000000002,,,1899101.0,1708757868.165625,1
4.0,-199.63,,,1906203.0,1708757868.2239583,1
4.0,-211.42749999999998,0.38298,35.05,1912469.0,1708757868.2822917,1
4.0,-217.26666666666665,,,1913855.0,1708757868.340625,1
4.0,-217.9075,,,1909894.0,1708757868.3989584,1
4.0,-212.695,,,1906009.0,1708757868.4572916,1
4.0,-168.45666666666668,0.372733,35.05,1904136.0,1708757868.515625,1
4.0,-96.3325,,,1902701.5,1708757868.5739584,1
4.0,-30.727500000000003,,,1902903.0,1708757868.6322916,1
4.0,-8.725,,,1903306.0,1708757868.690625,1
4.0,0.34000000000000014,,,1904174.0,1708757868.7489583,1
4.0,4.1725,0.380418,35.05,1905013.5,1708757868.8072917,1
4.0,-13.677499999999998,,,1906402.0,1708757868.865625,1
4.0,-18.802500000000002,,,1907748.0,1708757868.9239583,1
4.0,-21.709999999999997,,,1909424.0,1708757868.9822917,1
4.0,-25.839999999999996,0.381699,35.05,1910180.0,1708757869.040625,1
4.0,-33.5,,,1912172.5,1708757869.0989583,1
4.0,-40.7275,,,1914873.0,1708757869.1572917,1
4.0,-59.413333333333334,,,1916284.5,1708757869.215625,1
4.0,-97.35749999999999,0.38298,35.05,1913976.0,1708757869.2739584,1
4.0,-104.9175,,,1912122.0,1708757869.3322916,1
4.0,-67.27333333333333,,,1912399.0,1708757869.390625,1
4.0,-35.83,,,1912887.5,1708757869.4489584,1
4.0,-10.112499999999999,0.38298,35.05,1913864.0,1708757869.5072916,1
4.0,11.0475,,,1914922.5,1708757869.565625,1
4.0,25.39,,,1916220.0,1708757869.6239583,1
4.0,42.834999999999994,,,1918395.5,1708757869.6822917,1
4.0,56.75,,,1921518.0,1708757869.740625,1
4.0,53.3275,0.38426,35.05,1923980.0,1708757869.7989583,1
4.0,54.50333333333333,,,1927408.0,1708757869.8572917,1
4.0,54.4275,,,1930097.0,1708757869.915625,1
4.0,43.379999999999995,,,1933645.5,1708757869.9739583,1
4.0,37.9575,0.38298,35.05,1936277.0,1708757870.0322917,1
4.0,24.69666666666667,,,1935045.0,1708757870.090625,1
4.0,19.1125,,,1934789.0,1708757870.1489584,1
4.0,57.974999999999994,,,1934920.0,1708757870.2072916,1
4.0,90.5,0.38426,35.05,1936167.0,1708757870.265625,1
4.0,94.225,,,1938922.5,1708757870.3239584,1
4.0,83.33,,,1941328.0,1708757870.3822916,1
4.0,67.35,,,1942325.0,1708757870.440625,1
4.0,55.696666666666665,,,1944236.5,1708757870.4989583,1
4.0,44.3425,0.385541,35.05,1946808.0,1708757870.5572917,1
4.0,33.24,,,1949888.0,1708757870.615625,1
4.0,18.8025,,,1952979.0,1708757870.6739583,1
4.0,-1.32,,,1956504.0,1708757870.7322917,1
4.0,-14.895,0.385541,35.05,1959738.0,1708757870.790625,1
4.0,-21.645,,,1961865.0,1708757870.8489583,1
4.0,-16.75,,,1959798.0,1708757870.9072917,1
4.0,8.776666666666666,,,1957383.5,1708757870.965625,1
4.0,22.165,0.385541,35.05,1956901.0,1708757871.0239584,1
4.0,9.575000000000001,,,1956527.0,1708757871.0822916,1
4.0,2.2666666666666666,,,1957726.0,1708757871.140625,1
4.0,0.745,,,1959075.0,1708757871.1989584,1
4.0,0.31500000000000006,0.385541,35.03,1959940.0,1708757871.2572916,1
4.0,-1.33,,,1961592.0,1708757871.315625,1
4.0,-4.443333333333333,,,1963752.0,1708757871.3739583,1
4.0,-16.682499999999997,,,1966323.0,1708757871.4322917,1
4.0,-39.0625,,,1969039.5,1708757871.490625,1
4.0,-59.129999999999995,0.38426,35.03,1971853.0,1708757871.5489583,1
4.0,-75.14666666666666,,,1974792.5,1708757871.6072917,1
4.0,-93.5125,,,1978193.0,1708757871.665625,1
4.0,-78.8125,,,1977460.5,1708757871.7239583,1
4.0,-21.7975,0.38298,35.03,1974831.0,1708757871.7822917,1
4.0,11.953333333333333,,,1974082.0,1708757871.840625,1
4.0,23.645,,,1973807.5,1708757871.8989584,1
4.0,25.16,,,1974449.0,1708757871.9572916,1
4.0,23.276666666666667,0.38298,35.03,1975739.5,1708757872.015625,1
4.0,24.5675,,,1977060.0,1708757872.0739584,1
4.0,23.975,,,1978367.0,1708757872.1322916,1
4.0,14.714999999999998,,,1980436.0,1708757872.190625,1
4.0,3.9199999999999995,,,1984352.5,1708757872.2489583,1
4.0,-11.864999999999998,0.38298,35.03,1988977.0,1708757872.3072917,1
4.0,-30.5225,,,1994257.0,1708757872.365625,1
4.0,-48.277499999999996,,,2000270.0,1708757872.4239583,1
4.0,-60.839999999999996,,,2006912.0,1708757872.4822917,1
4.0,-38.305,0.38426,35.03,2010747.0,1708757872.540625,1
4.0,12.2825,,,2009879.0,1708757872.5989583,1
4.0,42.775,,,2009797.5,1708757872.6572917,1
4.0,52.196666666666665,,,2010554.0,1708757872.715625,1
4.0,49.66,0.38298,35.03,2012252.5,1708757872.7739584,1
4.0,44.9375,,,2015068.0,1708757872.8322916,1
4.0,44.93,,,2022606.0,1708757872.890625,1
4.0,43.335,,,2035969.0,1708757872.9489584,1
4.0,34.05,0.380418,35.03,2037174.0,1708757873.0072916,1
4.0,22.245,,,2036252.0,1708757873.065625,1
4.0,9.38,,,2036808.5,1708757873.1239583,1
4.0,3.9374999999999996,,,2036802.0,1708757873.1822917,1
4.0,-6.630000000000001,,,2037343.0,1708757873.240625,1
4.0,-25.229999999999997,0.379137,35.03,2038105.0,1708757873.2989583,1
4.0,-26.47666666666667,,,2036473.0,1708757873.3572917,1
4.0,-8.727500000000001,,,2035192.5,1708757873.415625,1
4.0,23.8575,,,2035387.0,1708757873.4739583,1
4.0,42.87,0.380418,35.03,2038335.5,1708757873.5322917,1
4.0,38.949999999999996,,,2040826.0,1708757873.590625,1
4.0,71.64250000000001,,,2043836.5,1708757873.6489584,1
4.0,99.08250000000001,,,2046548.0,1708757873.7072916,1
4.0,64.91666666666667,0.380418,35.03,2049716.5,1708757873.765625,1
4.0,12.035,,,2050136.0,1708757873.8239584,1
4.0,-33.565,,,2050222.0,1708757873.8822916,1
4.0,-87.55,,,2051531.5,1708757873.940625,1
4.0,-129.27,,,2052592.0,1708757873.9989583,1
4.0,-152.8325,0.381699,35.03,2052992.0,1708757874.0572917,1
4.0,-157.45,,,2050140.0,1708757874.115625,1
4.0,-106.1,,,2045051.5,1708757874.1739583,1
4.0,-50.07999999999999,,,2040387.0,1708757874.2322917,1
4.0,-14.465,0.38298,35.03,2036779.0,1708757874.290625,1
4.0,7.0725,,,2034221.0,1708757874.3489583,1
4.0,16.130000000000003,,,2032406.5,1708757874.4072917,1
4.0,22.389999999999997,,,2029820.0,1708757874.465625,1
4.0,29.7075,0.381699,35.03,2027663.0,1708757874.5239584,1
4.0,26.2725,,,2026385.0,1708757874.5822916,1
4.0,11.949999999999998,,,2025903.0,1708757874.640625,1
4.0,-12.535,,,2025732.0,1708757874.6989584,1
4.0,-39.46,0.381699,35.03,2025481.0,1708757874.7572916,1
4.0,-58.847500000000004,,,2025521.5,1708757874.815625,1
4.0,-73.63333333333333,,,2025429.0,1708757874.8739583,1
4.0,-60.8925,,,2020588.0,1708757874.9322917,1
4.0,-9.562499999999998,,,2015436.0,1708757874.990625,1
4.0,29.155,0.381699,35.03,2011523.5,1708757875.0489583,1
4.0,40.75666666666666,,,2008929.0,1708757875.1072917,1
4.0,40.7825,,,2007636.5,1708757875.165625,1
4.0,36.977500000000006,,,2006226.0,1708757875.2239583,1
4.0,36.292500000000004,0.38298,35.03,2005363.0,1708757875.2822917,1
4.0,35.49666666666667,,,2004616.5,1708757875.340625,1
4.0,25.36,,,2004454.0,1708757875.3989584,1
4.0,0.18999999999999995,,,2005732.5,1708757875.4572916,1
4.0,-24.41333333333333,0.38298,35.03,2009084.0,1708757875.515625,1
4.0,-46.015,,,2012828.5,1708757875.5739584,1
4.0,-77.6375,,,2017268.0,1708757875.6322916,1
4.0,-89.0125,,,2018795.5,1708757875.690625,1
4.0,-50.080000000000005,,,2016533.0,1708757875.7489583,1
4.0,-0.8449999999999998,0.386822,35.03,2012936.0,1708757875.8072917,1
4.0,35.385,,,2011535.0,1708757875.865625,1
4.0,53.61,,,2011361.0,1708757875.9239583,1
4.0,56.35333333333333,,,2012558.0,1708757875.9822917,1
4.0,53.852500000000006,0.38298,35.03,2013237.0,1708757876.040625,1
4.0,55.474999999999994,,,2013267.5,1708757876.0989583,1
4.0,47.292500000000004,,,2013554.0,1708757876.1572917,1
4.0,32.129999999999995,,,2014847.0,1708757876.215625,1
4.0,9.845,0.38298,35.03,2016224.0,1708757876.2739584,1
4.0,-14.580000000000002,,,2017918.5,1708757876.3322916,1
4.0,-34.8,,,2019853.0,1708757876.390625,1
4.0,-64.645,,,2021354.5,1708757876.4489584,1
4.0,-72.1425,0.38298,35.03,2021370.0,1708757876.5072916,1
4.0,-25.8375,,,2017892.0,1708757876.565625,1
4.0,10.933333333333332,,,2015868.0,1708757876.6239583,1
4.0,25.2275,,,2014934.5,1708757876.6822917,1
4.0,27.7625,,,2015076.0,1708757876.740625,1
4.0,24.8675,0.381699,35.03,2015617.0,1708757876.7989583,1
4.0,25.786666666666665,,,2015985.5,1708757876.8572917,1
4.0,27.395,,,2016426.0,1708757876.915625,1
4.0,20.060000000000002,,,2017790.5,1708757876.9739583,1
4.0,3.5749999999999997,0.381699,35.03,2019336.0,1708757877.0322917,1
4.0,-13.293333333333331,,,2021717.5,1708757877.090625,1
4.0,-30.237499999999997,,,2023194.0,1708757877.1489584,1
4.0,-54.685,,,2025151.0,1708757877.2072916,1
4.0,-70.32000000000001,0.381699,35.03,2026633.0,1708757877.265625,1
4.0,-44.002500000000005,,,2025151.0,1708757877.3239584,1
4.0,7.317500000000001,,,2022885.0,1708757877.3822916,1
4.0,34.965,,,2022060.0,1708757877.440625,1
4.0,40.77,,,2021735.0,1708757877.4989583,1
4.0,37.68,0.381699,35.03,2022415.0,1708757877.5572917,1
4.0,34.885,,,2023235.5,1708757877.615625,1
4.0,33.94,,,2023596.0,1708757877.6739583,1
4.0,29.450000000000003,,,2025070.5,1708757877.7322917,1
4.0,17.544999999999998,0.38298,35.03,2028295.0,1708757877.790625,1
4.0,-4.12,,,2032135.5,1708757877.8489583,1
4.0,-26.1075,,,2034707.0,1708757877.9072917,1
4.0,-49.22666666666667,,,2037665.5,1708757877.965625,1
4.0,-69.14750000000001,0.38298,35.03,2041108.0,1708757878.0239584,1
4.0,-46.7375,,,2040144.5,1708757878.0822916,1
4.0,0.4766666666666672,,,2038185.0,1708757878.140625,1
4.0,29.745,,,2038678.0,1708757878.1989584,1
4.0,38.715,0.38426,35.03,2038942.0,1708757878.2572916,1
4.0,37.155,,,2039217.0,1708757878.315625,1
4.0,31.10333333333334,,,2040219.5,1708757878.3739583,1
4.0,25.98,,,2040868.0,1708757878.4322917,1
4.0,30.027499999999996,,,2043065.5,1708757878.490625,1
4.0,39.0,0.38298,35.03,2046133.0,1708757878.5489583,1
4.0,47.97,,,2046674.0,1708757878.6072917,1
4.0,53.33,,,2049847.0,1708757878.665625,1
4.0,50.52,,,2054065.5,1708757878.7239583,1
4.0,24.3975,0.38426,35.03,2057222.0,1708757878.7822917,1
4.0,-32.23,,,2059127.5,1708757878.840625,1
4.0,-50.6875,,,2058476.0,1708757878.8989584,1
4.0,-19.014999999999997,,,2057278.0,1708757878.9572916,1
4.0,-1.12,0.38298,35.03,2056619.0,1708757879.015625,1
4.0,-9.557500000000001,,,2056559.0,1708757879.0739584,1
4.0,-21.89,,,2057669.5,1708757879.1322916,1
4.0,-24.445,,,2058714.0,1708757879.190625,1
4.0,-25.236666666666668,,,2059478.0,1708757879.2489583,1
4.0,-24.1325,0.38298,35.03,2060452.0,1708757879.3072917,1
4.0,-30.9625,,,2061202.5,1708757879.365625,1
4.0,-42.2175,,,2062878.0,1708757879.4239583,1
4.0,-54.79666666666666,,,2063884.0,1708757879.4822917,1
4.0,-73.3075,0.381699,35.03,2065348.0,1708757879.540625,1
4.0,-59.217499999999994,,,2067010.0,1708757879.5989583,1
4.0,-4.072500000000002,,,2067760.0,1708757879.6572917,1
4.0,31.793333333333333,,,2066184.0,1708757879.715625,1
4.0,42.41,0.380418,35.03,2064405.0,1708757879.7739584,1
4.0,38.0625,,,2063804.0,1708757879.8322916,1
4.0,33.916666666666664,,,2063579.0,1708757879.890625,1
4.0,30.83,,,2063533.0,1708757879.9489584,1
4.0,25.1925,0.381699,35.03,2064171.5,1708757880.0072916,1
4.0,9.1425,,,2064452.0,1708757880.065625,1
4.0,-14.053333333333333,,,2065522.0,1708757880.1239583,1
4.0,-32.06,,,2067229.0,1708757880.1822917,1
4.0,-58.839999999999996,,,2068866.5,1708757880.240625,1
4.0,-72.1425,0.379137,35.03,2070685.0,1708757880.2989583,1
4.0,-35.21666666666667,,,2072570.0,1708757880.3572917,1
4.0,12.9925,,,2074356.5,1708757880.415625,1
4.0,52.3925,,,2073207.0,1708757880.4739583,1
4.0,76.8475,0.377856,35.03,2072919.5,1708757880.5322917,1
4.0,75.81666666666666,,,2074683.0,1708757880.590625,1
4.0,81.4075,,,2076925.5,1708757880.6489584,1
4.0,91.3875,,,2080068.0,1708757880.7072916,1
4.0,67.87666666666667,0.377856,35.03,2082377.0,1708757880.765625,1
4.0,32.37,,,2086209.0,1708757880.8239584,1
4.0,-4.2425,,,2089402.0,1708757880.8822916,1
4.0,-50.942499999999995,,,2093119.0,1708757880.940625,1
4.0,-96.57000000000001,,,2094961.0,1708757880.9989583,1
4.0,-118.9025,0.377856,35.03,2098228.0,1708757881.0572917,1
4.0,-85.7175,,,2100473.0,1708757881.115625,1
4.0,-31.472500000000004,,,2102832.0,1708757881.1739583,1
4.0,0.8433333333333334,,,2103352.0,1708757881.2322917,1
4.0,15.6625,0.377856,35.0,2100985.5,1708757881.290625,1
4.0,21.945,,,2100465.0,1708757881.3489583,1
4.0,26.28,,,2101327.0,1708757881.4072917,1
4.0,27.813333333333333,,,2102337.0,1708757881.465625,1
4.0,23.4925,0.376575,35.0,2102868.0,1708757881.5239584,1
4.0,8.565,,,2103921.0,1708757881.5822916,1
4.0,-10.383333333333333,,,2104609.0,1708757881.640625,1
4.0,-28.532500000000002,,,2104901.0,1708757881.6989584,1
4.0,-53.3875,0.376575,35.0,2105460.0,1708757881.7572916,1
4.0,-71.6625,,,2106363.0,1708757881.815625,1
4.0,-46.080000000000005,,,2107383.0,1708757881.8739583,1
4.0,2.69,,,2108285.0,1708757881.9322917,1
4.0,35.614999999999995,,,2106629.0,1708757881.990625,1
4.0,43.64,0.377856,35.0,2103957.0,1708757882.0489583,1
4.0,41.09666666666667,,,2102945.0,1708757882.1072917,1
4.0,36.345,,,2102351.5,1708757882.165625,1
4.0,31.2525,,,2102445.0,1708757882.2239583,1
4.0,25.485,0.376575,35.0,2102502.5,1708757882.2822917,1
4.0,10.996666666666668,,,2102682.0,1708757882.340625,1
4.0,-8.615,,,2102815.0,1708757882.3989584,1
4.0,-29.5,,,2103518.0,1708757882.4572916,1
4.0,-54.57333333333333,0.377856,35.0,2104393.0,1708757882.515625,1
4.0,-69.7975,,,2105796.0,1708757882.5739584,1
4.0,-37.3975,,,2106907.0,1708757882.6322916,1
4.0,8.5225,,,2106171.5,1708757882.690625,1
4.0,27.49666666666667,,,2102952.0,1708757882.7489583,1
4.0,32.1,0.377856,35.0,2100300.0,1708757882.8072917,1
4.0,31.115000000000002,,,2098873.0,1708757882.865625,1
4.0,33.4875,,,2097928.5,1708757882.9239583,1
4.0,36.21,,,2097625.0,1708757882.9822917,1
4.0,30.05,0.380418,35.0,2097483.0,1708757883.040625,1
4.0,17.3825,,,2097213.0,1708757883.0989583,1
4.0,0.41249999999999987,,,2097098.0,1708757883.1572917,1
4.0,-17.21666666666667,,,2097504.5,1708757883.215625,1
4.0,-38.307500000000005,0.380418,35.03,2098236.0,1708757883.2739584,1
4.0,-67.165,,,2098971.0,1708757883.3322916,1
4.0,-58.18333333333334,,,2099952.0,1708757883.390625,1
4.0,-7.8775,,,2098885.5,1708757883.4489584,1
4.0,33.442499999999995,0.381699,35.03,2094544.0,1708757883.5072916,1
4.0,48.9225,,,2091359.5,1708757883.565625,1
4.0,51.836666666666666,,,2088793.0,1708757883.6239583,1
4.0,48.93500000000001,,,2087899.0,1708757883.6822917,1
4.0,45.5625,,,2086771.5,1708757883.740625,1
4.0,45.644999999999996,0.380418,35.03,2085766.0,1708757883.7989583,1
4.0,37.48333333333334,,,2085013.0,1708757883.8572917,1
4.0,21.11,,,2084544.0,1708757883.915625,1
4.0,0.7699999999999996,,,2084690.0,1708757883.9739583,1
4.0,-22.290000000000003,0.380418,35.03,2085243.0,1708757884.0322917,1
4.0,-37.93,,,2085839.5,1708757884.090625,1
4.0,-56.6,,,2086503.0,1708757884.1489584,1
4.0,-77.395,,,2085751.5,1708757884.2072916,1
4.0,-54.083333333333336,0.380418,35.0,2081765.0,1708757884.265625,1
4.0,-5.1274999999999995,,,2077430.0,1708757884.3239584,1
4.0,31.482499999999998,,,2074566.0,1708757884.3822916,1
4.0,47.434999999999995,,,2072912.0,1708757884.440625,1
4.0,51.43333333333334,,,2071749.0,1708757884.4989583,1
4.0,50.19,0.379137,35.0,2070438.0,1708757884.5572917,1
4.0,49.307500000000005,,,2069177.0,1708757884.615625,1
4.0,43.2475,,,2068360.0,1708757884.6739583,1
4.0,28.266666666666666,,,2068407.5,1708757884.7322917,1
4.0,11.8475,0.377856,35.0,2068607.0,1708757884.790625,1
4.0,-10.125,,,2070541.0,1708757884.8489583,1
4.0,-30.505000000000003,,,2074308.0,1708757884.9072917,1
4.0,-51.72666666666667,,,2073606.0,1708757884.965625,1
4.0,-73.9325,0.379137,35.0,2069738.0,1708757885.0239584,1
4.0,-57.89,,,2069099.0,1708757885.0822916,1
4.0,-12.549999999999999,,,2068551.0,1708757885.140625,1
4.0,18.3625,,,2069640.0,1708757885.1989584,1
4.0,30.380000000000003,0.380418,34.99,2071642.0,1708757885.2572916,1
4.0,29.9525,,,2073207.0,1708757885.315625,1
4.0,29.186666666666667,,,2073445.5,1708757885.3739583,1
4.0,28.77,,,2075651.0,1708757885.4322917,1
4.0,28.77,,,2075193.0,1708757885.490625,1
4.0,18.395000000000003,0.375294,34.99,2075015.0,1708757885.5489583,1
4.0,3.7566666666666673,,,2076433.0,1708757885.6072917,1
4.0,-9.587499999999999,,,2078059.0,1708757885.665625,1
4.0,-34.5875,,,2078751.0,1708757885.7239583,1
4.0,-62.724999999999994,0.374014,34.99,2077956.0,1708757885.7822917,1
4.0,-53.63333333333333,,,2073939.0,1708757885.840625,1
4.0,-13.235,,,2071928.5,1708757885.8989584,1
4.0,20.345,,,2070353.0,1708757885.9572916,1
4.0,33.42333333333334,0.375294,34.99,2071897.0,1708757886.015625,1
4.0,36.0275,,,2072349.0,1708757886.0739584,1
4.0,32.050000000000004,,,2069546.5,1708757886.1322916,1
4.0,29.167500000000004,,,2068305.0,1708757886.190625,1
4.0,26.853333333333335,,,2068719.0,1708757886.2489583,1
4.0,16.9075,0.376575,35.0,2069928.0,1708757886.3072917,1
4.0,-0.6524999999999996,,,2070350.5,1708757886.365625,1
4.0,-19.6525,,,2070922.0,1708757886.4239583,1
4.0,-34.086666666666666,,,2071403.0,1708757886.4822917,1
4.0,-51.300000000000004,0.374014,35.0,2072720.5,1708757886.540625,1
4.0,-74.0075,,,2073071.0,1708757886.5989583,1
4.0,-56.30499999999999,,,2069631.5,1708757886.6572917,1
4.0,-12.626666666666665,,,2066037.0,1708757886.715625,1
4.0,16.9,0.376575,35.0,2063664.5,1708757886.7739584,1
4.0,35.365,,,2062150.0,1708757886.8322916,1
4.0,42.65,,,2061413.5,1708757886.890625,1
4.0,44.7025,,,2061058.0,1708757886.9489584,1
4.0,48.129999999999995,0.376575,35.0,2060668.0,1708757887.0072916,1
4.0,48.6125,,,2060445.0,1708757887.065625,1
4.0,38.836666666666666,,,2060603.0,1708757887.1239583,1
4.0,23.0425,,,2061494.5,1708757887.1822917,1
4.0,0.8224999999999998,,,2062550.0,1708757887.240625,1
4.0,-22.365000000000002,0.375294,35.0,2063667.0,1708757887.2989583,1
4.0,-46.68666666666667,,,2064814.0,1708757887.3572917,1
4.0,-67.6075,,,2065763.5,1708757887.415625,1
4.0,-46.8925,,,2063340.0,1708757887.4739583,1
4.0,-4.965,0.377856,35.0,2059409.0,1708757887.5322917,1
4.0,16.986666666666668,,,2057254.0,1708757887.590625,1
4.0,25.765,,,2055893.5,1708757887.6489584,1
4.0,23.45,,,2055750.0,1708757887.7072916,1
4.0,18.703333333333333,0.379137,35.0,2055392.0,1708757887.765625,1
4.0,16.205,,,2055070.0,1708757887.8239584,1
4.0,10.902500000000002,,,2054929.0,1708757887.8822916,1
4.0,-5.1075,,,2056207.5,1708757887.940625,1
4.0,-24.16333333333333,,,2058211.0,1708757887.9989583,1
4.0,-36.9525,0.379137,35.0,2060118.0,1708757888.0572917,1
4.0,-50.02,,,2062164.0,1708757888.115625,1
4.0,-65.7775,,,2064663.0,1708757888.1739583,1
4.0,-48.120000000000005,,,2065520.0,1708757888.2322917,1
4.0,-5.545,0.377856,34.99,2062754.0,1708757888.290625,1
4.0,28.150000000000002,,,2060374.0,1708757888.3489583,1
4.0,44.88,,,2058786.0,1708757888.4072917,1
4.0,47.22666666666667,,,2057363.0,1708757888.465625,1
4.0,40.315,0.376575,34.99,2056974.0,1708757888.5239584,1
4.0,34.62,,,2056681.0,1708757888.5822916,1
4.0,25.08666666666667,,,2054619.0,1708757888.640625,1
4.0,9.29,,,2055291.0,1708757888.6989584,1
4.0,-13.240000000000002,0.377856,34.99,2057030.0,1708757888.7572916,1
4.0,-30.042499999999997,,,2057611.5,1708757888.815625,1
4.0,-39.11,,,2059211.0,1708757888.8739583,1
4.0,-58.99249999999999,,,2061508.0,1708757888.9322917,1
4.0,-68.28999999999999,,,2063248.0,1708757888.990625,1
4.0,-27.7625,0.377856,34.99,2061622.0,1708757889.0489583,1
4.0,9.683333333333334,,,2057634.0,1708757889.1072917,1
4.0,28.4375,,,2054110.0,1708757889.165625,1
4.0,36.805,,,2051155.0,1708757889.2239583,1
4.0,36.112500000000004,0.375294,35.0,2048974.0,1708757889.2822917,1
4.0,34.849999999999994,,,2047499.5,1708757889.340625,1
4.0,35.5025,,,2046144.0,1708757889.3989584,1
4.0,26.2425,,,2045066.0,1708757889.4572916,1
4.0,11.513333333333334,0.376575,35.0,2044791.0,1708757889.515625,1
4.0,-1.8800000000000001,,,2044961.0,1708757889.5739584,1
4.0,-18.5175,,,2045474.0,1708757889.6322916,1
4.0,-31.265,,,2046112.5,1708757889.690625,1
4.0,-48.71666666666667,,,2046919.0,1708757889.7489583,1
4.0,-64.685,0.375294,35.0,2047260.0,1708757889.8072917,1
4.0,-38.072500000000005,,,2043578.0,1708757889.865625,1
4.0,10.1175,,,2038715.0,1708757889.9239583,1
4.0,35.57,,,2035011.0,1708757889.9822917,1
4.0,45.277499999999996,0.390665,35.0,2032267.0,1708757890.040625,1
4.0,43.3675,,,2031281.0,1708757890.0989583,1
4.0,38.575,,,2030019.0,1708757890.1572917,1
4.0,37.803333333333335,,,2028877.5,1708757890.215625,1
4.0,37.6925,0.375294,34.99,2028734.0,1708757890.2739584,1
4.0,29.415000000000003,,,2031048.5,1708757890.3322916,1
4.0,18.033333333333335,,,2032750.0,1708757890.390625,1
4.0,2.7824999999999998,,,2033297.0,1708757890.4489584,1
4.0,-17.8325,0.403474,34.99,2034940.5,1708757890.5072916,1
4.0,-34.7025,,,2037071.0,1708757890.565625,1
4.0,-56.02,,,2036085.0,1708757890.6239583,1
4.0,-70.2125,,,2031941.0,1708757890.6822917,1
4.0,-34.224999999999994,,,2029515.5,1708757890.740625,1
4.0,22.94,0.388103,34.99,2028440.0,1708757890.7989583,1
4.0,55.14666666666667,,,2029463.0,1708757890.8572917,1
4.0,76.5725,,,2030826.0,1708757890.915625,1
4.0,95.85000000000001,,,2032090.5,1708757890.9739583,1
4.0,109.595,0.380418,34.99,2032910.0,1708757891.0322917,1
4.0,115.30666666666667,,,2032811.0,1708757891.090625,1
4.0,105.10249999999999,,,2033901.0,1708757891.1489584,1
4.0,80.02250000000001,,,2032073.0,1708757891.2072916,1
4.0,43.79,0.376575,34.99,2032756.5,1708757891.265625,1
4.0,-3.77,,,2035925.0,1708757891.3239584,1
4.0,-47.8875,,,2037538.5,1708757891.3822916,1
4.0,-107.69500000000001,,,2037005.0,1708757891.440625,1
4.0,-147.57666666666668,,,2036509.0,1708757891.4989583,1
4.0,-126.03999999999999,0.372733,34.99,2033338.0,1708757891.5572917,1
4.0,-71.5425,,,2031096.5,1708757891.615625,1
4.0,-36.22,,,2029319.0,1708757891.6739583,1
4.0,-36.416666666666664,,,2027188.0,1708757891.7322917,1
4.0,-39.71,0.377856,34.99,2025868.0,1708757891.790625,1
4.0,-35.1075,,,2025651.0,1708757891.8489583,1
4.0,-42.81,,,2025973.5,1708757891.9072917,1
4.0,-55.02,,,2027157.0,1708757891.965625,1
4.0,-61.7675,0.375294,34.99,2028345.0,1708757892.0239584,1
4.0,-66.08000000000001,,,2030158.0,1708757892.0822916,1
4.0,-69.28000000000002,,,2031670.5,1708757892.140625,1
4.0,-74.385,,,2032790.0,1708757892.1989584,1
4.0,-75.6875,0.377856,34.99,2028768.5,1708757892.2572916,1
4.0,-37.8075,,,2024208.0,1708757892.315625,1
4.0,7.313333333333333,,,2021183.0,1708757892.3739583,1
4.0,24.8375,,,2018419.0,1708757892.4322917,1
4.0,27.889999999999997,,,2016989.5,1708757892.490625,1
4.0,29.9925,0.377856,34.99,2015367.0,1708757892.5489583,1
4.0,37.343333333333334,,,2014200.0,1708757892.6072917,1
4.0,57.072500000000005,,,2013386.0,1708757892.665625,1
4.0,87.63,,,2013054.0,1708757892.7239583,1
4.0,99.5575,0.379137,34.99,2013567.0,1708757892.7822917,1
4.0,97.65666666666668,,,2014375.0,1708757892.840625,1
4.0,88.5175,,,2015776.5,1708757892.8989584,1
4.0,67.97749999999999,,,2018702.0,1708757892.9572916,1
4.0,41.24,0.379137,34.99,2021316.5,1708757893.015625,1
4.0,4.1274999999999995,,,2021708.0,1708757893.0739584,1
4.0,-26.7275,,,2018309.5,1708757893.1322916,1
4.0,-11.489999999999998,,,2015976.0,1708757893.190625,1
4.0,16.549999999999997,,,2014664.0,1708757893.2489583,1
4.0,24.652499999999996,0.379137,34.99,2012696.5,1708757893.3072917,1
4.0,26.117500000000003,,,2011148.0,1708757893.365625,1
4.0,34.665,,,2010061.0,1708757893.4239583,1
4.0,43.53333333333333,,,2009078.0,1708757893.4822917,1
4.0,43.0475,0.379137,34.99,2009369.0,1708757893.540625,1
4.0,22.475,,,2009846.0,1708757893.5989583,1
4.0,-5.17,,,2010750.0,1708757893.6572917,1
4.0,-8.876666666666667,,,2011586.0,1708757893.715625,1
4.0,-36.5275,0.379137,34.99,2012694.0,1708757893.7739584,1
4.0,-88.1325,,,2013541.0,1708757893.8322916,1
4.0,-117.61,,,2011867.0,1708757893.890625,1
4.0,-93.39750000000001,,,2006479.5,1708757893.9489584,1
4.0,-42.224999999999994,0.377856,34.99,2002563.0,1708757894.0072916,1
4.0,-8.99,,,1999963.5,1708757894.065625,1
4.0,0.7233333333333333,,,1998900.0,1708757894.1239583,1
4.0,1.9999999999999998,,,1997902.0,1708757894.1822917,1
4.0,5.897500000000001,,,1997265.0,1708757894.240625,1
4.0,11.8475,0.377856,34.99,1996756.0,1708757894.2989583,1
4.0,13.63,,,1997390.0,1708757894.3572917,1
4.0,5.54,,,1998316.5,1708757894.415625,1
4.0,-14.305,,,1999357.0,1708757894.4739583,1
4.0,-31.7025,0.376575,34.99,2000773.5,1708757894.5322917,1
4.0,-50.776666666666664,,,2002051.0,1708757894.590625,1
4.0,-72.7525,,,2002996.0,1708757894.6489584,1
4.0,-55.4675,,,1999465.0,1708757894.7072916,1
4.0,-8.870000000000001,0.375294,34.99,1994280.0,1708757894.765625,1
4.0,24.105,,,1990880.0,1708757894.8239584,1
4.0,38.285,,,1988496.0,1708757894.8822916,1
4.0,36.9425,,,1987873.0,1708757894.940625,1
4.0,32.37,,,1988096.0,1708757894.9989583,1
4.0,30.8325,0.375294,34.99,1988026.5,1708757895.0572917,1
4.0,26.47,,,1988569.0,1708757895.115625,1
4.0,15.607499999999998,,,1990206.0,1708757895.1739583,1
4.0,1.2033333333333331,,,1992080.0,1708757895.2322917,1
4.0,-17.009999999999998,0.376575,34.97,1993233.0,1708757895.290625,1
4.0,-36.2075,,,1995810.0,1708757895.3489583,1
4.0,-60.465,,,1997852.0,1708757895.4072917,1
4.0,-71.72666666666667,,,2000162.0,1708757895.465625,1
4.0,-39.894999999999996,0.374014,34.97,2001221.0,1708757895.5239584,1
4.0,13.4825,,,1996215.0,1708757895.5822916,1
4.0,38.81333333333333,,,1991596.0,1708757895.640625,1
4.0,43.97749999999999,,,1989423.5,1708757895.6989584,1
4.0,40.91,0.374014,34.97,1987623.0,1708757895.7572916,1
4.0,36.405,,,1987577.5,1708757895.815625,1
4.0,33.203333333333326,,,1988115.0,1708757895.8739583,1
4.0,29.195,,,1989023.0,1708757895.9322917,1
4.0,19.4775,,,1989541.0,1708757895.990625,1
4.0,-2.1875,0.375294,34.97,1990746.0,1708757896.0489583,1
4.0,-19.93,,,1992205.5,1708757896.1072917,1
4.0,-33.057500000000005,,,1993968.0,1708757896.165625,1
4.0,-55.17,,,1996050.0,1708757896.2239583,1
4.0,-61.824999999999996,0.372733,34.97,1998311.0,1708757896.2822917,1
4.0,-29.306666666666672,,,1996540.0,1708757896.340625,1
4.0,6.9025,,,1992915.0,1708757896.3989584,1
4.0,26.384999999999998,,,1991461.5,1708757896.4572916,1
4.0,30.389999999999997,0.374014,34.97,1990819.0,1708757896.515625,1
4.0,28.2125,,,1990897.5,1708757896.5739584,1
4.0,26.662499999999998,,,1990541.0,1708757896.6322916,1
4.0,26.0375,,,1989995.0,1708757896.690625,1
4.0,21.91,,,1989856.5,1708757896.7489583,1
4.0,9.502500000000001,0.376575,34.97,1990462.0,1708757896.8072917,1
4.0,-9.299999999999999,,,1991642.0,1708757896.865625,1
4.0,-30.1175,,,1993181.0,1708757896.9239583,1
4.0,-53.826666666666675,,,1994518.5,1708757896.9822917,1
4.0,-55.0975,0.375294,34.97,1995739.0,1708757897.040625,1
4.0,-15.84,,,1992107.0,1708757897.0989583,1
4.0,21.435000000000002,,,1986370.0,1708757897.1572917,1
4.0,34.64,,,1982489.5,1708757897.215625,1
4.0,34.3775,0.376575,34.97,1979749.0,1708757897.2739584,1
4.0,27.7625,,,1978846.0,1708757897.3322916,1
4.0,25.153333333333332,,,1977782.0,1708757897.390625,1
4.0,20.947499999999998,,,1976598.0,1708757897.4489584,1
4.0,7.8825,0.376575,34.97,1976116.0,1708757897.5072916,1
4.0,-13.607500000000002,,,1976193.0,1708757897.565625,1
4.0,-26.97,,,1976976.5,1708757897.6239583,1
4.0,-32.5425,,,1978586.0,1708757897.6822917,1
4.0,-43.9375,,,1980182.5,1708757897.740625,1
4.0,-39.535,0.375294,34.97,1982109.0,1708757897.7989583,1
4.0,5.936666666666667,,,1982026.0,1708757897.8572917,1
4.0,44.8925,,,1977421.0,1708757897.915625,1
4.0,57.8725,,,1974614.0,1708757897.9739583,1
4.0,55.44,0.375294,34.97,1975631.0,1708757898.0322917,1
4.0,44.083333333333336,,,1975643.0,1708757898.090625,1
4.0,29.54,,,1974978.0,1708757898.1489584,1
4.0,17.345,,,1974627.0,1708757898.2072916,1
4.0,5.22,0.375294,35.0,1973203.5,1708757898.265625,1
4.0,-9.607500000000002,,,1972876.0,1708757898.3239584,1
4.0,-25.68,,,1974721.5,1708757898.3822916,1
4.0,-40.41,,,1975666.0,1708757898.440625,1
4.0,-52.25333333333333,,,1977397.5,1708757898.4989583,1
4.0,-70.11,0.375294,35.0,1980006.0,1708757898.5572917,1
4.0,-71.7225,,,1983619.5,1708757898.615625,1
4.0,-24.625,,,1985950.0,1708757898.6739583,1
4.0,14.633333333333335,,,1983739.0,1708757898.7322917,1
4.0,32.92,0.371452,35.0,1980665.5,1708757898.790625,1
4.0,34.910000000000004,,,1979243.0,1708757898.8489583,1
4.0,28.975,,,1978810.5,1708757898.9072917,1
4.0,28.043333333333333,,,1979424.0,1708757898.965625,1
4.0,30.177500000000002,0.372733,35.0,1979230.0,1708757899.0239584,1
4.0,25.1275,,,1978820.0,1708757899.0822916,1
4.0,10.540000000000001,,,1979114.0,1708757899.140625,1
4.0,-4.43,,,1979813.0,1708757899.1989584,1
4.0,-21.9075,0.371452,34.97,1981427.5,1708757899.2572916,1
4.0,-45.1575,,,1983105.0,1708757899.315625,1
4.0,-43.9,,,1984310.0,1708757899.3739583,1
4.0,-8.2825,,,1983475.5,1708757899.4322917,1
4.0,29.21,,,1978550.0,1708757899.490625,1
4.0,42.5025,0.370171,34.97,1974404.0,1708757899.5489583,1
4.0,40.38333333333333,,,1972054.0,1708757899.6072917,1
4.0,34.43,,,1971105.5,1708757899.665625,1
4.0,26.2575,,,1971031.0,1708757899.7239583,1
4.0,16.09,0.370171,34.97,1970253.0,1708757899.7822917,1
4.0,4.363333333333332,,,1970047.0,1708757899.840625,1
4.0,-13.7125,,,1970385.5,1708757899.8989584,1
4.0,-36.905,,,1972028.0,1708757899.9572916,1
4.0,-58.23,0.370171,34.97,1974273.5,1708757900.015625,1
4.0,-80.535,,,1977303.0,1708757900.0739584,1
4.0,-67.2575,,,1980206.0,1708757900.1322916,1
4.0,-14.712499999999999,,,1983185.0,1708757900.190625,1
4.0,19.256666666666664,,,1983766.0,1708757900.2489583,1
4.0,30.71,0.371452,34.97,1981746.5,1708757900.3072917,1
4.0,33.612500000000004,,,1980892.0,1708757900.365625,1
4.0,31.4775,,,1982592.5,1708757900.4239583,1
4.0,29.30666666666667,,,1986522.0,1708757900.4822917,1
4.0,27.4075,0.370171,34.97,1988870.5,1708757900.540625,1
4.0,17.9375,,,1993036.0,1708757900.5989583,1
4.0,-2.485,,,1999749.5,1708757900.6572917,1
4.0,-18.560000000000002,,,2000809.0,1708757900.715625,1
4.0,-30.75,0.370171,34.97,2001855.0,1708757900.7739584,1
4.0,-54.442499999999995,,,2004411.0,1708757900.8322916,1
4.0,-63.00666666666666,,,2006421.5,1708757900.890625,1
4.0,-27.194999999999997,,,2007921.0,1708757900.9489584,1
4.0,17.7,0.372733,34.97,2007432.0,1708757901.0072916,1
4.0,38.9775,,,2002406.5,1708757901.065625,1
4.0,43.54666666666666,,,1997352.0,1708757901.1239583,1
4.0,38.9825,,,1994459.0,1708757901.1822917,1
4.0,28.855,,,1992814.0,1708757901.240625,1
4.0,24.66,0.371452,34.95,1991889.0,1708757901.2989583,1
4.0,19.279999999999998,,,1991388.0,1708757901.3572917,1
4.0,4.1225,,,1990930.5,1708757901.415625,1
4.0,-16.5725,,,1991332.0,1708757901.4739583,1
4.0,-35.8575,0.374014,34.95,1991991.0,1708757901.5322917,1
4.0,-60.21666666666667,,,1993235.0,1708757901.590625,1
4.0,-68.42750000000001,,,1993999.0,1708757901.6489584,1
4.0,-32.74,,,1995501.0,1708757901.7072916,1
4.0,4.53,0.374014,34.95,1994489.0,1708757901.765625,1
4.0,23.8575,,,1989400.0,1708757901.8239584,1
4.0,27.3375,,,1985367.0,1708757901.8822916,1
4.0,19.7175,,,1983244.0,1708757901.940625,1
4.0,13.799999999999999,,,1982339.0,1708757901.9989583,1
4.0,10.682500000000001,0.372733,34.95,1982214.5,1708757902.0572917,1
4.0,6.4,,,1982665.0,1708757902.115625,1
4.0,-13.59,,,1982371.0,1708757902.1739583,1
4.0,-27.396666666666665,,,1983115.0,1708757902.2322917,1
4.0,-35.28,0.374014,34.97,1983525.0,1708757902.290625,1
4.0,-38.5525,,,1985352.5,1708757902.3489583,1
4.0,-5.005000000000001,,,1987164.0,1708757902.4072917,1
4.0,44.53666666666667,,,1989190.5,1708757902.465625,1
4.0,81.275,0.371452,34.97,1988289.0,1708757902.5239584,1
4.0,98.53,,,1985118.5,1708757902.5822916,1
4.0,99.03666666666668,,,1982073.0,1708757902.640625,1
4.0,124.59499999999998,,,1982140.5,1708757902.6989584,1
4.0,100.1275,0.371452,34.97,1982346.0,1708757902.7572916,1
4.0,1.0300000000000002,,,1984107.0,1708757902.815625,1
4.0,-40.48666666666667,,,1985521.0,1708757902.8739583,1
4.0,-48.20249999999999,,,1991239.5,1708757902.9322917,1
4.0,-55.5925,,,1996794.0,1708757902.990625,1
4.0,-73.89,0.372733,34.97,1997098.0,1708757903.0489583,1
4.0,-87.19,,,1997168.0,1708757903.1072917,1
4.0,-79.67,,,1998866.0,1708757903.165625,1
4.0,-31.995,,,2000801.0,1708757903.2239583,1
4.0,6.645,0.36889,34.93,2001455.0,1708757903.2822917,1
4.0,21.189999999999998,,,1995816.0,1708757903.340625,1
4.0,28.285000000000004,,,1990607.0,1708757903.3989584,1
4.0,26.825000000000003,,,1987231.5,1708757903.4572916,1
4.0,21.39333333333333,0.36889,34.93,1985257.0,1708757903.515625,1
4.0,13.4725,,,1983866.5,1708757903.5739584,1
4.0,1.3550000000000002,,,1982799.0,1708757903.6322916,1
4.0,-17.885,,,1981907.0,1708757903.690625,1
4.0,-33.830000000000005,,,1981367.0,1708757903.7489583,1
4.0,-48.915,0.36889,34.93,1981497.0,1708757903.8072917,1
4.0,-71.22,,,1982009.5,1708757903.865625,1
4.0,-59.9175,,,1983339.0,1708757903.9239583,1
4.0,-13.436666666666667,,,1984496.5,1708757903.9822917,1
4.0,24.7025,0.36889,34.93,1984283.0,1708757904.040625,1
4.0,42.6975,,,1978266.5,1708757904.0989583,1
4.0,41.3725,,,1972928.0,1708757904.1572917,1
4.0,34.19,,,1969777.0,1708757904.215625,1
4.0,27.19,0.36889,34.97,1968072.0,1708757904.2739584,1
4.0,18.3075,,,1967106.0,1708757904.3322916,1
4.0,6.9766666666666675,,,1966508.0,1708757904.390625,1
4.0,-11.54,,,1965870.0,1708757904.4489584,1
4.0,-28.125,0.36889,34.97,1965922.5,1708757904.5072916,1
4.0,-40.372499999999995,,,1966977.0,1708757904.565625,1
4.0,-42.04666666666666,,,1969723.5,1708757904.6239583,1
4.0,3.4725,,,1971753.0,1708757904.6822917,1
4.0,87.7825,,,1974878.0,1708757904.740625,1
4.0,138.24,0.370171,34.97,1976442.0,1708757904.7989583,1
4.0,135.79,,,1974313.0,1708757904.8572917,1
4.0,94.55250000000001,,,1972043.0,1708757904.915625,1
4.0,44.5125,,,1971863.5,1708757904.9739583,1
4.0,-0.09750000000000014,0.367609,34.97,1971816.0,1708757905.0322917,1
4.0,-42.25666666666667,,,1971780.0,1708757905.090625,1
4.0,-73.69999999999999,,,1972709.0,1708757905.1489584,1
4.0,-89.9775,,,1974534.0,1708757905.2072916,1
4.0,-106.55,0.370171,34.97,1976048.0,1708757905.265625,1
4.0,-111.32,,,1978258.0,1708757905.3239584,1
4.0,-70.6825,,,1982366.0,1708757905.3822916,1
4.0,-17.1625,,,1985588.0,1708757905.440625,1
4.0,9.13,,,1987637.0,1708757905.4989583,1
4.0,20.1675,0.371452,34.97,1984369.0,1708757905.5572917,1
4.0,21.93,,,1977830.0,1708757905.615625,1
4.0,19.5375,,,1973370.0,1708757905.6739583,1
4.0,18.48,,,1969614.0,1708757905.7322917,1
4.0,12.137500000000001,0.371452,34.97,1967031.0,1708757905.790625,1
4.0,-7.375,,,1965411.0,1708757905.8489583,1
4.0,-26.8125,,,1963204.0,1708757905.9072917,1
4.0,-51.336666666666666,,,1961566.0,1708757905.965625,1
4.0,-68.3375,0.371452,34.97,1960482.5,1708757906.0239584,1
4.0,-36.9775,,,1960527.0,1708757906.0822916,1
4.0,4.766666666666667,,,1960882.5,1708757906.140625,1
4.0,27.887500000000003,,,1961481.0,1708757906.1989584,1
4.0,34.89,0.372733,34.95,1962442.5,1708757906.2572916,1
4.0,25.8175,,,1958624.0,1708757906.315625,1
4.0,19.569999999999997,,,1950957.5,1708757906.3739583,1
4.0,22.23,,,1945327.0,1708757906.4322917,1
4.0,24.902499999999996,,,1942753.0,1708757906.490625,1
4.0,9.725,0.370171,34.95,1940324.5,1708757906.5489583,1
4.0,-6.526666666666666,,,1939368.0,1708757906.6072917,1
4.0,-19.5525,,,1938895.5,1708757906.665625,1
4.0,-41.095,,,1939151.0,1708757906.7239583,1
4.0,-33.9125,0.370171,34.95,1940076.0,1708757906.7822917,1
4.0,6.036666666666666,,,1942187.0,1708757906.840625,1
4.0,37.78,,,1944650.0,1708757906.8989584,1
4.0,49.8925,,,1947589.0,1708757906.9572916,1
4.0,45.839999999999996,0.370171,34.95,1951213.0,1708757907.015625,1
4.0,35.7825,,,1953098.0,1708757907.0739584,1
4.0,29.945,,,1952731.5,1708757907.1322916,1
4.0,36.3425,,,1951458.0,1708757907.190625,1
4.0,37.35666666666666,,,1950858.0,1708757907.2489583,1
4.0,26.8725,0.371452,34.93,1951554.0,1708757907.3072917,1
4.0,6.5424999999999995,,,1952771.0,1708757907.365625,1
4.0,-34.0025,,,1956336.0,1708757907.4239583,1
4.0,-62.01333333333334,,,1957957.0,1708757907.4822917,1
4.0,-51.355000000000004,0.36889,34.93,1959787.0,1708757907.540625,1
4.0,-24.18,,,1961620.0,1708757907.5989583,1
4.0,-10.29,,,1963721.0,1708757907.6572917,1
4.0,-2.7866666666666666,,,1963720.0,1708757907.715625,1
4.0,-2.625,0.367609,34.93,1957760.5,1708757907.7739584,1
4.0,-0.8499999999999999,,,1952961.0,1708757907.8322916,1
4.0,5.06,,,1950981.0,1708757907.890625,1
4.0,8.024999999999999,,,1949094.5,1708757907.9489584,1
4.0,2.6675,0.367609,34.93,1947975.0,1708757908.0072916,1
4.0,-13.200000000000001,,,1946895.5,1708757908.065625,1
4.0,-28.626666666666665,,,1945720.0,1708757908.1239583,1
4.0,-48.3025,,,1945697.0,1708757908.1822917,1
4.0,-69.31750000000001,,,1945975.0,1708757908.240625,1
4.0,-46.334999999999994,0.367609,34.97,1947330.0,1708757908.2989583,1
4.0,0.9566666666666664,,,1949078.0,1708757908.3572917,1
4.0,33.87,,,1947390.5,1708757908.415625,1
4.0,49.0325,,,1939874.0,1708757908.4739583,1
4.0,45.455,0.367609,34.97,1933764.0,1708757908.5322917,1
4.0,39.419999999999995,,,1929630.0,1708757908.590625,1
4.0,37.465,,,1927997.0,1708757908.6489584,1
4.0,34.035000000000004,,,1927013.0,1708757908.7072916,1
4.0,22.866666666666664,0.367609,34.97,1925543.0,1708757908.765625,1
4.0,3.839999999999999,,,1924611.0,1708757908.8239584,1
4.0,-16.5,,,1924032.0,1708757908.8822916,1
4.0,-42.370000000000005,,,1924620.5,1708757908.940625,1
4.0,-68.78,,,1926059.0,1708757908.9989583,1
4.0,-64.105,0.367609,34.97,1927547.5,1708757909.0572917,1
4.0,-19.4375,,,1929159.0,1708757909.115625,1
4.0,11.6525,,,1924440.5,1708757909.1739583,1
4.0,18.246666666666666,,,1917360.0,1708757909.2322917,1
4.0,22.335,0.36889,34.97,1914059.0,1708757909.290625,1
4.0,40.027499999999996,,,1912259.0,1708757909.3489583,1
4.0,68.35,,,1912839.0,1708757909.4072917,1
4.0,86.43666666666667,,,1915576.5,1708757909.465625,1
4.0,89.4025,0.367609,34.97,1916214.0,1708757909.5239584,1
4.0,68.07000000000001,,,1917092.5,1708757909.5822916,1
4.0,29.38,,,1920784.0,1708757909.640625,1
4.0,-10.8325,,,1924819.5,1708757909.6989584,1
4.0,-52.74250000000001,0.366328,34.97,1928705.0,1708757909.7572916,1
4.0,-35.629999999999995,,,1931649.5,1708757909.815625,1
4.0,33.17333333333333,,,1934411.0,1708757909.8739583,1
4.0,43.3425,,,1929269.5,1708757909.9322917,1
4.0,-4.6925,,,1924534.0,1708757909.990625,1
4.0,-18.917499999999997,0.370171,34.97,1923424.0,1708757910.0489583,1
4.0,-8.360000000000001,,,1923476.0,1708757910.1072917,1
4.0,-6.49,,,1924171.0,1708757910.165625,1
4.0,-4.2275,,,1925372.0,1708757910.2239583,1
4.0,-7.5625,0.370171,34.95,1926721.0,1708757910.2822917,1
4.0,-22.22666666666667,,,1928621.5,1708757910.340625,1
4.0,-34.71,,,1930483.0,1708757910.3989584,1
4.0,-59.8675,,,1932869.5,1708757910.4572916,1
4.0,-76.54333333333334,0.371452,34.95,1935253.0,1708757910.515625,1
4.0,-50.355,,,1936503.0,1708757910.5739584,1
4.0,-5.352500000000001,,,1938790.5,1708757910.6322916,1
4.0,17.395,,,1936506.0,1708757910.690625,1
4.0,21.709999999999997,,,1930083.0,1708757910.7489583,1
4.0,17.0975,0.370171,34.95,1925677.0,1708757910.8072917,1
4.0,7.495,,,1923556.5,1708757910.865625,1
4.0,4.5075,,,1922552.0,1708757910.9239583,1
4.0,4.273333333333333,,,1922520.0,1708757910.9822917,1
4.0,-7.3675,0.370171,34.95,1922278.0,1708757911.040625,1
4.0,-24.2975,,,1922458.5,1708757911.0989583,1
4.0,-39.105,,,1923423.0,1708757911.1572917,1
4.0,-61.089999999999996,,,1924716.5,1708757911.215625,1
4.0,-72.02,0.371452,34.95,1926681.0,1708757911.2739584,1
4.0,-36.9275,,,1928574.5,1708757911.3322916,1
4.0,3.4333333333333336,,,1930591.0,1708757911.390625,1
4.0,23.0875,,,1928515.0,1708757911.4489584,1
4.0,25.6175,0.370171,34.95,1922479.5,1708757911.5072916,1
4.0,17.884999999999998,,,1918885.0,1708757911.565625,1
4.0,14.126666666666667,,,1917236.0,1708757911.6239583,1
4.0,12.7475,,,1918354.0,1708757911.6822917,1
4.0,19.025,,,1920776.0,1708757911.740625,1
4.0,29.2,0.370171,34.95,1924472.0,1708757911.7989583,1
4.0,28.17,,,1927508.0,1708757911.8572917,1
4.0,18.0,,,1930938.0,1708757911.915625,1
4.0,-2.0825,,,1932670.0,1708757911.9739583,1
4.0,-23.082500000000003,0.370171,34.95,1934271.5,1708757912.0322917,1
4.0,-8.266666666666666,,,1935874.0,1708757912.090625,1
4.0,28.7425,,,1938695.0,1708757912.1489584,1
4.0,51.435,,,1942928.0,1708757912.2072916,1
4.0,51.25,0.367609,34.95,1940548.5,1708757912.265625,1
4.0,39.445,,,1938183.0,1708757912.3239584,1
4.0,24.015,,,1937708.5,1708757912.3822916,1
4.0,11.614999999999998,,,1938154.0,1708757912.440625,1
4.0,-0.28999999999999987,,,1938880.0,1708757912.4989583,1
4.0,-14.485,0.367609,34.95,1939967.0,1708757912.5572917,1
4.0,-33.6575,,,1941244.0,1708757912.615625,1
4.0,-51.295,,,1942663.0,1708757912.6739583,1
4.0,-69.07,,,1944223.0,1708757912.7322917,1
4.0,-82.8025,0.367609,34.95,1946182.0,1708757912.790625,1
4.0,-57.4025,,,1947791.0,1708757912.8489583,1
4.0,-5.1525,,,1948856.0,1708757912.9072917,1
4.0,23.873333333333335,,,1944243.0,1708757912.965625,1
4.0,32.33500000000001,0.367609,34.95,1938579.5,1708757913.0239584,1
4.0,26.905,,,1935088.0,1708757913.0822916,1
4.0,19.706666666666667,,,1933800.5,1708757913.140625,1
4.0,17.0375,,,1933338.0,1708757913.1989584,1
4.0,13.834999999999999,0.367609,34.95,1933247.0,1708757913.2572916,1
4.0,-2.0650000000000004,,,1932754.0,1708757913.315625,1
4.0,-23.28,,,1932473.0,1708757913.3739583,1
4.0,-33.550000000000004,,,1933123.0,1708757913.4322917,1
4.0,-48.772499999999994,,,1934244.0,1708757913.490625,1
4.0,-68.5275,0.367609,34.95,1936072.0,1708757913.5489583,1
4.0,-48.01666666666666,,,1937833.0,1708757913.6072917,1
4.0,-3.367499999999999,,,1937178.5,1708757913.665625,1
4.0,39.71,,,1930751.0,1708757913.7239583,1
4.0,58.6725,0.367609,34.95,1925649.5,1708757913.7822917,1
4.0,55.98666666666667,,,1922406.0,1708757913.840625,1
4.0,52.135000000000005,,,1921422.0,1708757913.8989584,1
4.0,50.0875,,,1921016.0,1708757913.9572916,1
4.0,43.85333333333333,0.366328,34.95,1920829.0,1708757914.015625,1
4.0,27.495,,,1921448.0,1708757914.0739584,1
4.0,10.237499999999999,,,1924278.0,1708757914.1322916,1
4.0,-0.5275000000000001,,,1927332.0,1708757914.190625,1
4.0,-13.87,,,1928786.0,1708757914.2489583,1
4.0,-10.06,0.367609,34.93,1931728.0,1708757914.3072917,1
4.0,16.645,,,1934436.0,1708757914.365625,1
4.0,42.135,,,1933447.5,1708757914.4239583,1
4.0,72.21666666666665,,,1932655.0,1708757914.4822917,1
4.0,43.7525,0.36889,34.93,1931694.0,1708757914.540625,1
4.0,-26.8025,,,1930382.5,1708757914.5989583,1
4.0,-39.88,,,1929972.0,1708757914.6572917,1
4.0,-22.849999999999998,,,1933189.0,1708757914.715625,1
4.0,-21.3,0.36889,34.93,1934512.0,1708757914.7739584,1
4.0,-36.5025,,,1935345.0,1708757914.8322916,1
4.0,-45.39333333333334,,,1937913.0,1708757914.890625,1
4.0,-67.57,,,1941861.5,1708757914.9489584,1
4.0,-81.2325,0.367609,34.93,1945579.0,1708757915.0072916,1
4.0,-43.0825,,,1947398.0,1708757915.065625,1
4.0,2.943333333333333,,,1949681.0,1708757915.1239583,1
4.0,29.839999999999996,,,1950437.0,1708757915.1822917,1
4.0,38.0025,,,1944616.0,1708757915.240625,1
4.0,34.019999999999996,0.36889,34.93,1939672.0,1708757915.2989583,1
4.0,29.103333333333335,,,1934834.0,1708757915.3572917,1
4.0,25.375,,,1931490.0,1708757915.415625,1
4.0,18.7775,,,1929882.5,1708757915.4739583,1
4.0,1.29,0.370171,34.93,1928688.0,1708757915.5322917,1
4.0,-18.44,,,1927022.0,1708757915.590625,1
4.0,-42.5625,,,1926323.0,1708757915.6489584,1
4.0,-72.755,,,1926790.5,1708757915.7072916,1
4.0,-70.46666666666668,0.367609,34.93,1928016.0,1708757915.765625,1
4.0,-27.9825,,,1929491.5,1708757915.8239584,1
4.0,12.862499999999999,,,1931555.0,1708757915.8822916,1
4.0,28.6425,,,1931547.5,1708757915.940625,1
4.0,28.200000000000003,,,1925404.0,1708757915.9989583,1
4.0,21.622500000000002,0.367609,34.93,1920686.0,1708757916.0572917,1
4.0,16.4075,,,1916502.5,1708757916.115625,1
4.0,11.535,,,1913830.0,1708757916.1739583,1
4.0,9.573333333333334,,,1912959.5,1708757916.2322917,1
4.0,18.9075,0.370171,34.93,1912529.0,1708757916.290625,1
4.0,35.2675,,,1911601.0,1708757916.3489583,1
4.0,37.847500000000004,,,1911477.0,1708757916.4072917,1
4.0,18.60333333333333,,,1912511.5,1708757916.465625,1
4.0,4.734999999999999,0.366328,34.93,1914095.0,1708757916.5239584,1
4.0,21.4775,,,1915912.0,1708757916.5822916,1
4.0,29.24333333333333,,,1919464.5,1708757916.640625,1
4.0,21.147499999999997,,,1923723.0,1708757916.6989584,1
4.0,7.977499999999999,0.365047,34.93,1922172.0,1708757916.7572916,1
4.0,1.5425,,,1918557.0,1708757916.815625,1
4.0,-1.2433333333333334,,,1916814.0,1708757916.8739583,1
4.0,-2.53,,,1917545.0,1708757916.9322917,1
4.0,-2.995,,,1918982.5,1708757916.990625,1
4.0,-15.91,0.365047,34.93,1919776.0,1708757917.0489583,1
4.0,-33.583333333333336,,,1919607.0,1708757917.1072917,1
4.0,-60.045,,,1919921.0,1708757917.165625,1
4.0,-86.09,,,1920795.5,1708757917.2239583,1
4.0,-60.095,0.367609,34.91,1922265.0,1708757917.2822917,1
4.0,-12.276666666666666,,,1923163.0,1708757917.340625,1
4.0,21.825,,,1924015.0,1708757917.3989584,1
4.0,39.075,,,1918873.0,1708757917.4572916,1
4.0,42.36000000000001,0.365047,34.91,1912491.0,1708757917.515625,1
4.0,40.99,,,1908414.0,1708757917.5739584,1
4.0,41.0025,,,1906111.5,1708757917.6322916,1
4.0,33.0625,,,1905091.0,1708757917.690625,1
4.0,19.44,,,1904176.5,1708757917.7489583,1
4.0,3.0974999999999997,0.367609,34.91,1903387.0,1708757917.8072917,1
4.0,-16.1075,,,1903447.0,1708757917.865625,1
4.0,-33.61,,,1904227.0,1708757917.9239583,1
4.0,-56.28,,,1905484.5,1708757917.9822917,1
4.0,-71.54,0.365047,34.91,1907192.0,1708757918.040625,1
4.0,-37.63499999999999,,,1908240.0,1708757918.0989583,1
4.0,14.455000000000002,,,1906239.0,1708757918.1572917,1
4.0,43.13333333333333,,,1898776.0,1708757918.215625,1
4.0,57.17,0.365047,34.93,1893769.0,1708757918.2739584,1
4.0,57.305,,,1890490.0,1708757918.3322916,1
4.0,56.166666666666664,,,1888858.5,1708757918.390625,1
4.0,58.3875,,,1887762.0,1708757918.4489584,1
4.0,49.197500000000005,0.366328,34.93,1886624.0,1708757918.5072916,1
4.0,31.2525,,,1886252.0,1708757918.565625,1
4.0,15.526666666666666,,,1886771.0,1708757918.6239583,1
4.0,-4.24,,,1889224.0,1708757918.6822917,1
4.0,-30.6325,,,1892174.0,1708757918.740625,1
4.0,-60.135,0.36889,34.93,1897100.5,1708757918.7989583,1
4.0,-69.65333333333334,,,1900043.0,1708757918.8572917,1
4.0,-35.055,,,1901773.0,1708757918.915625,1
4.0,6.6850000000000005,,,1901801.0,1708757918.9739583,1
4.0,25.4425,0.367609,34.93,1901180.0,1708757919.0322917,1
4.0,29.179999999999996,,,1900580.0,1708757919.090625,1
4.0,25.1525,,,1901329.5,1708757919.1489584,1
4.0,17.78,,,1903331.0,1708757919.2072916,1
4.0,8.799999999999999,0.36889,34.91,1905606.0,1708757919.265625,1
4.0,-3.8325000000000005,,,1908557.0,1708757919.3239584,1
4.0,-20.945,,,1910961.0,1708757919.3822916,1
4.0,-33.9175,,,1914622.5,1708757919.440625,1
4.0,-43.52333333333333,,,1918143.0,1708757919.4989583,1
4.0,-45.8225,0.36889,34.91,1921639.0,1708757919.5572917,1
4.0,-9.52,,,1928639.0,1708757919.615625,1
4.0,49.6725,,,1931550.5,1708757919.6739583,1
4.0,53.69333333333333,,,1926577.0,1708757919.7322917,1
4.0,21.195,0.36889,34.91,1923398.0,1708757919.790625,1
4.0,-0.4075,,,1922123.0,1708757919.8489583,1
4.0,3.0175,,,1921952.5,1708757919.9072917,1
4.0,2.4266666666666667,,,1921992.0,1708757919.965625,1
4.0,-6.455,0.36889,34.91,1921729.0,1708757920.0239584,1
4.0,-26.589999999999996,,,1921889.0,1708757920.0822916,1
4.0,-47.153333333333336,,,1922486.0,1708757920.140625,1
4.0,-70.06,,,1923962.5,1708757920.1989584,1
4.0,-87.28999999999999,0.36889,34.93,1925646.0,1708757920.2572916,1
4.0,-51.12,,,1927644.5,1708757920.315625,1
4.0,-4.243333333333333,,,1930012.0,1708757920.3739583,1
4.0,24.0725,,,1931226.0,1708757920.4322917,1
4.0,37.792500000000004,,,1925996.0,1708757920.490625,1
4.0,37.5325,0.36889,34.93,1920110.5,1708757920.5489583,1
4.0,33.06666666666666,,,1916245.0,1708757920.6072917,1
4.0,28.7025,,,1913961.0,1708757920.665625,1
4.0,24.439999999999998,,,1913165.0,1708757920.7239583,1
4.0,7.432499999999999,0.36889,34.93,1912814.0,1708757920.7822917,1
4.0,-11.64,,,1912566.5,1708757920.840625,1
4.0,-33.005,,,1913169.0,1708757920.8989584,1
4.0,-65.4275,,,1914151.5,1708757920.9572916,1
4.0,-66.31,0.370171,34.93,1915908.0,1708757921.015625,1
4.0,-25.435000000000002,,,1917957.0,1708757921.0739584,1
4.0,17.794999999999998,,,1920144.0,1708757921.1322916,1
4.0,37.755,,,1922329.0,1708757921.190625,1
4.0,43.43000000000001,,,1922307.0,1708757921.2489583,1
4.0,42.1425,0.36889,34.91,1915886.5,1708757921.3072917,1
4.0,39.644999999999996,,,1912300.0,1708757921.365625,1
4.0,40.192499999999995,,,1912597.0,1708757921.4239583,1
4.0,32.28666666666667,,,1910754.0,1708757921.4822917,1
4.0,15.684999999999999,0.366328,34.91,1910154.0,1708757921.540625,1
4.0,-6.727499999999999,,,1910419.0,1708757921.5989583,1
4.0,-25.3975,,,1909659.0,1708757921.6572917,1
4.0,-37.51,,,1909990.5,1708757921.715625,1
4.0,-58.275000000000006,0.365047,34.91,1912643.0,1708757921.7739584,1
4.0,-52.5225,,,1915975.0,1708757921.8322916,1
4.0,-6.6866666666666665,,,1919249.0,1708757921.890625,1
4.0,24.2775,,,1922290.0,1708757921.9489584,1
4.0,33.3075,0.365047,34.91,1919562.0,1708757922.0072916,1
4.0,33.142500000000005,,,1916019.5,1708757922.065625,1
4.0,33.839999999999996,,,1914235.0,1708757922.1239583,1
4.0,32.3275,,,1914381.0,1708757922.1822917,1
4.0,26.182499999999997,,,1916099.5,1708757922.240625,1
4.0,13.875,0.365047,34.91,1918255.0,1708757922.2989583,1
4.0,-0.9433333333333332,,,1920254.5,1708757922.3572917,1
4.0,-16.805,,,1921910.0,1708757922.415625,1
4.0,-34.9925,,,1923740.5,1708757922.4739583,1
4.0,-57.2025,0.365047,34.91,1925787.0,1708757922.5322917,1
4.0,-78.22666666666667,,,1927677.5,1708757922.590625,1
4.0,-63.6625,,,1929678.0,1708757922.6489584,1
4.0,-16.3075,,,1923388.0,1708757922.7072916,1
4.0,13.426666666666668,0.365047,34.91,1917535.0,1708757922.765625,1
4.0,28.7675,,,1914782.0,1708757922.8239584,1
4.0,38.555,,,1912017.0,1708757922.8822916,1
4.0,43.5275,,,1911299.0,1708757922.940625,1
4.0,43.596666666666664,,,1910730.5,1708757922.9989583,1
4.0,40.167500000000004,0.365047,34.91,1910219.0,1708757923.0572917,1
4.0,26.1625,,,1910457.0,1708757923.115625,1
4.0,9.055,,,1911662.0,1708757923.1739583,1
4.0,-7.330000000000001,,,1912864.5,1708757923.2322917,1
4.0,-21.6775,0.363767,34.91,1915155.0,1708757923.290625,1
4.0,-44.3925,,,1917046.0,1708757923.3489583,1
4.0,-71.0775,,,1914125.0,1708757923.4072917,1
4.0,-56.18,,,1906638.0,1708757923.465625,1
4.0,-12.562500000000002,0.363767,34.91,1901465.0,1708757923.5239584,1
4.0,24.0875,,,1898530.0,1708757923.5822916,1
4.0,36.28,,,1896521.0,1708757923.640625,1
4.0,34.4825,,,1895569.0,1708757923.6989584,1
4.0,30.6,0.367609,34.91,1894379.0,1708757923.7572916,1
4.0,27.23,,,1893781.0,1708757923.815625,1
4.0,24.376666666666665,,,1895433.5,1708757923.8739583,1
4.0,10.895,,,1898278.0,1708757923.9322917,1
4.0,-10.935,,,1898962.5,1708757923.990625,1
4.0,-31.14,0.366328,34.91,1899741.0,1708757924.0489583,1
4.0,-54.13666666666666,,,1902369.0,1708757924.1072917,1
4.0,-63.4375,,,1906778.0,1708757924.165625,1
4.0,-28.877499999999998,,,1908636.0,1708757924.2239583,1
4.0,13.197500000000002,0.36889,34.93,1909398.5,1708757924.2822917,1
4.0,31.91,,,1911091.0,1708757924.340625,1
4.0,34.805,,,1912733.5,1708757924.3989584,1
4.0,33.9525,,,1913163.0,1708757924.4572916,1
4.0,31.756666666666664,0.366328,34.93,1917689.5,1708757924.515625,1
4.0,28.442500000000003,,,1920887.0,1708757924.5739584,1
4.0,16.44,,,1920551.5,1708757924.6322916,1
4.0,-3.9000000000000004,,,1921049.0,1708757924.690625,1
4.0,-24.28333333333333,,,1921978.0,1708757924.7489583,1
4.0,-51.542500000000004,0.367609,34.93,1924019.0,1708757924.8072917,1
4.0,-50.379999999999995,,,1926238.0,1708757924.865625,1
4.0,-5.2749999999999995,,,1928453.0,1708757924.9239583,1
4.0,30.070000000000004,,,1930941.0,1708757924.9822917,1
4.0,42.519999999999996,0.366328,34.93,1927553.5,1708757925.040625,1
4.0,36.8,,,1920379.0,1708757925.0989583,1
4.0,21.959999999999997,,,1915003.5,1708757925.1572917,1
4.0,11.14,,,1910924.0,1708757925.215625,1
4.0,4.5275,0.367609,34.91,1909476.0,1708757925.2739584,1
4.0,-8.5675,,,1908907.0,1708757925.3322916,1
4.0,-19.786666666666665,,,1908755.5,1708757925.390625,1
4.0,-27.2625,,,1909040.0,1708757925.4489584,1
4.0,-44.7025,0.367609,34.91,1910266.0,1708757925.5072916,1
4.0,-36.165,,,1912038.0,1708757925.565625,1
4.0,6.586666666666667,,,1914358.0,1708757925.6239583,1
4.0,42.3525,,,1917164.0,1708757925.6822917,1
4.0,52.2,,,1919931.0,1708757925.740625,1
4.0,37.7675,0.366328,34.91,1922764.0,1708757925.7989583,1
4.0,24.513333333333335,,,1920854.0,1708757925.8572917,1
4.0,19.2425,,,1915357.5,1708757925.915625,1
4.0,23.9375,,,1912967.0,1708757925.9739583,1
4.0,19.2875,0.366328,34.91,1912541.5,1708757926.0322917,1
4.0,10.053333333333333,,,1913751.0,1708757926.090625,1
4.0,0.03500000000000014,,,1915044.0,1708757926.1489584,1
4.0,-23.7125,,,1916860.0,1708757926.2072916,1
4.0,-36.876666666666665,0.367609,34.95,1920697.0,1708757926.265625,1
4.0,-16.31,,,1923186.0,1708757926.3239584,1
4.0,10.122499999999999,,,1925898.0,1708757926.3822916,1
4.0,16.71,,,1930131.5,1708757926.440625,1
4.0,14.88,,,1932975.0,1708757926.4989583,1
4.0,13.18,0.367609,34.95,1931048.0,1708757926.5572917,1
4.0,10.919999999999998,,,1928044.0,1708757926.615625,1
4.0,6.547499999999999,,,1927104.5,1708757926.6739583,1
4.0,-0.9666666666666668,,,1924661.0,1708757926.7322917,1
4.0,-14.5575,0.362486,34.95,1925348.0,1708757926.790625,1
4.0,-28.96,,,1927675.0,1708757926.8489583,1
4.0,-47.8,,,1930102.0,1708757926.9072917,1
4.0,-64.47000000000001,,,1930816.0,1708757926.965625,1
4.0,-46.072500000000005,0.363767,34.95,1930540.0,1708757927.0239584,1
4.0,3.5875000000000004,,,1930939.0,1708757927.0822916,1
4.0,31.39,,,1931688.0,1708757927.140625,1
4.0,42.4325,,,1932560.5,1708757927.1989584,1
4.0,41.515,0.365047,34.91,1932421.0,1708757927.2572916,1
4.0,34.695,,,1925974.0,1708757927.315625,1
4.0,31.59,,,1920152.0,1708757927.3739583,1
4.0,25.990000000000002,,,1915994.5,1708757927.4322917,1
4.0,11.0425,,,1913437.0,1708757927.490625,1
4.0,-14.837499999999999,0.362486,34.91,1912041.0,1708757927.5489583,1
4.0,-36.71666666666667,,,1910345.5,1708757927.6072917,1
4.0,-57.87,,,1908824.0,1708757927.665625,1
4.0,-74.795,,,1908333.0,1708757927.7239583,1
4.0,-48.075,0.362486,34.91,1908212.0,1708757927.7822917,1
4.0,6.433333333333334,,,1908899.5,1708757927.840625,1
4.0,42.097500000000004,,,1910113.0,1708757927.8989584,1
4.0,56.754999999999995,,,1907824.0,1708757927.9572916,1
4.0,55.583333333333336,0.362486,34.91,1900026.0,1708757928.015625,1
4.0,48.885,,,1894509.5,1708757928.0739584,1
4.0,42.072500000000005,,,1890120.0,1708757928.1322916,1
4.0,34.269999999999996,,,1888233.0,1708757928.190625,1
4.0,19.169999999999998,,,1886725.0,1708757928.2489583,1
4.0,2.835,0.362486,34.91,1885547.0,1708757928.3072917,1
4.0,-18.134999999999998,,,1885044.0,1708757928.365625,1
4.0,-36.0675,,,1885240.0,1708757928.4239583,1
4.0,-55.22,,,1887034.0,1708757928.4822917,1
4.0,-73.73,0.361205,34.91,1888871.0,1708757928.540625,1
4.0,-55.082499999999996,,,1891008.5,1708757928.5989583,1
4.0,-7.962499999999999,,,1892675.0,1708757928.6572917,1
4.0,17.503333333333334,,,1886168.5,1708757928.715625,1
4.0,27.747500000000002,0.366328,34.91,1879102.0,1708757928.7739584,1
4.0,29.83,,,1874273.5,1708757928.8322916,1
4.0,27.963333333333335,,,1870957.0,1708757928.890625,1
4.0,27.0475,,,1870121.0,1708757928.9489584,1
4.0,22.1325,0.365047,34.91,1868468.0,1708757929.0072916,1
4.0,12.754999999999999,,,1867142.0,1708757929.065625,1
4.0,0.11333333333333358,,,1866864.5,1708757929.1239583,1
4.0,-15.795000000000002,,,1867389.0,1708757929.1822917,1
4.0,-32.8125,,,1868667.5,1708757929.240625,1
4.0,-54.545,0.366328,34.91,1870245.0,1708757929.2989583,1
4.0,-60.653333333333336,,,1872156.0,1708757929.3572917,1
4.0,-30.495,,,1868189.0,1708757929.415625,1
4.0,10.64,,,1861609.5,1708757929.4739583,1
4.0,30.07,0.365047,34.91,1856990.0,1708757929.5322917,1
4.0,33.21333333333333,,,1854689.0,1708757929.590625,1
4.0,31.809999999999995,,,1853324.5,1708757929.6489584,1
4.0,31.457500000000003,,,1852946.0,1708757929.7072916,1
4.0,30.453333333333333,0.363767,34.91,1852734.0,1708757929.765625,1
4.0,24.142500000000002,,,1852493.0,1708757929.8239584,1
4.0,11.14,,,1853467.0,1708757929.8822916,1
4.0,-8.504999999999999,,,1854725.0,1708757929.940625,1
4.0,-23.72,,,1856968.5,1708757929.9989583,1
4.0,-40.760000000000005,0.363767,34.91,1859256.0,1708757930.0572917,1
4.0,-60.80499999999999,,,1861813.5,1708757930.115625,1
4.0,-44.785000000000004,,,1859462.0,1708757930.1739583,1
4.0,-8.316666666666666,,,1854725.0,1708757930.2322917,1
4.0,14.9375,0.365047,34.91,1849497.5,1708757930.290625,1
4.0,23.942500000000003,,,1845957.0,1708757930.3489583,1
4.0,22.3025,,,1844424.0,1708757930.4072917,1
4.0,21.09,,,1846416.0,1708757930.465625,1
4.0,19.665,0.363767,34.91,1849031.0,1708757930.5239584,1
4.0,17.185,,,1851161.0,1708757930.5822916,1
4.0,6.323333333333333,,,1851944.5,1708757930.640625,1
4.0,-8.41,,,1852765.0,1708757930.6989584,1
4.0,-24.8,0.363767,34.91,1855218.5,1708757930.7572916,1
4.0,-45.095,,,1859752.0,1708757930.815625,1
4.0,-52.656666666666666,,,1863804.0,1708757930.8739583,1
4.0,-24.964999999999996,,,1868674.0,1708757930.9322917,1
4.0,12.3125,,,1870246.0,1708757930.990625,1
4.0,31.1225,0.365047,34.91,1869760.5,1708757931.0489583,1
4.0,31.71666666666667,,,1865341.0,1708757931.1072917,1
4.0,24.8325,,,1862293.5,1708757931.165625,1
4.0,20.439999999999998,,,1862249.0,1708757931.2239583,1
4.0,19.715,0.361205,34.89,1863292.0,1708757931.2822917,1
4.0,12.756666666666668,,,1864173.0,1708757931.340625,1
4.0,-0.2925000000000002,,,1865706.0,1708757931.3989584,1
4.0,-16.7975,,,1868390.0,1708757931.4572916,1
4.0,-30.349999999999998,0.361205,34.89,1871606.0,1708757931.515625,1
4.0,-46.515,,,1875919.0,1708757931.5739584,1
4.0,-59.03,,,1878724.0,1708757931.6322916,1
4.0,-30.46,,,1882910.0,1708757931.690625,1
4.0,7.933333333333333,,,1886438.0,1708757931.7489583,1
4.0,29.339999999999996,0.362486,34.89,1881434.0,1708757931.8072917,1
4.0,38.5525,,,1875951.0,1708757931.865625,1
4.0,36.6025,,,1872499.0,1708757931.9239583,1
4.0,30.203333333333333,,,1870514.0,1708757931.9822917,1
4.0,22.419999999999998,0.362486,34.89,1869440.5,1708757932.040625,1
4.0,10.475,,,1868938.0,1708757932.0989583,1
4.0,-2.54,,,1868616.5,1708757932.1572917,1
4.0,-16.84,,,1869216.0,1708757932.215625,1
4.0,-29.389999999999997,0.362486,34.89,1870343.5,1708757932.2739584,1
4.0,-41.32,,,1872355.0,1708757932.3322916,1
4.0,-58.696666666666665,,,1873754.0,1708757932.390625,1
4.0,-60.2475,,,1876069.0,1708757932.4489584,1
4.0,-25.17,0.361205,34.89,1878590.0,1708757932.5072916,1
4.0,10.7775,,,1875858.5,1708757932.565625,1
4.0,28.50666666666667,,,1870544.0,1708757932.6239583,1
4.0,37.4325,,,1867719.0,1708757932.6822917,1
4.0,44.7425,,,1866958.0,1708757932.740625,1
4.0,46.43000000000001,0.362486,34.89,1870507.0,1708757932.7989583,1
4.0,42.11333333333334,,,1872112.0,1708757932.8572917,1
4.0,28.157500000000002,,,1875419.0,1708757932.915625,1
4.0,2.1925000000000003,,,1877930.0,1708757932.9739583,1
4.0,-24.5625,0.362486,34.89,1880078.0,1708757933.0322917,1
4.0,-44.4,,,1883892.5,1708757933.090625,1
4.0,-64.2675,,,1887230.0,1708757933.1489584,1
4.0,-59.777499999999996,,,1891277.5,1708757933.2072916,1
4.0,-25.076666666666668,0.361205,34.89,1894251.0,1708757933.265625,1
4.0,6.680000000000001,,,1891993.5,1708757933.3239584,1
4.0,22.875,,,1891937.0,1708757933.3822916,1
4.0,22.505,,,1894041.0,1708757933.440625,1
4.0,19.16,,,1894609.0,1708757933.4989583,1
4.0,19.15,0.362486,34.89,1895229.0,1708757933.5572917,1
4.0,22.9025,,,1894182.0,1708757933.615625,1
4.0,17.294999999999998,,,1891076.5,1708757933.6739583,1
4.0,12.146666666666667,,,1892439.0,1708757933.7322917,1
4.0,13.032499999999999,0.363767,34.89,1894164.0,1708757933.790625,1
4.0,11.73,,,1897021.5,1708757933.8489583,1
4.0,29.82,,,1899913.0,1708757933.9072917,1
4.0,59.23,,,1903010.5,1708757933.965625,1
4.0,66.64750000000001,0.363767,34.89,1906295.0,1708757934.0239584,1
4.0,46.489999999999995,,,1904557.0,1708757934.0822916,1
4.0,20.55,,,1901006.0,1708757934.140625,1
4.0,5.335,,,1899542.0,1708757934.1989584,1
4.0,12.385,0.363767,34.91,1898345.0,1708757934.2572916,1
4.0,18.5625,,,1898582.0,1708757934.315625,1
4.0,9.146666666666667,,,1899165.0,1708757934.3739583,1
4.0,0.07500000000000018,,,1899549.0,1708757934.4322917,1
4.0,-38.8625,,,1900618.0,1708757934.490625,1
4.0,-110.295,0.363767,34.91,1902088.0,1708757934.5489583,1
4.0,-107.73666666666666,,,1904001.5,1708757934.6072917,1
4.0,-72.5275,,,1905786.0,1708757934.665625,1
4.0,-45.28,,,1908057.5,1708757934.7239583,1
4.0,-26.900000000000002,0.362486,34.91,1910305.0,1708757934.7822917,1
4.0,-7.053333333333334,,,1907928.5,1708757934.840625,1
4.0,0.445,,,1903240.0,1708757934.8989584,1
4.0,5.835,,,1900474.5,1708757934.9572916,1
4.0,3.623333333333333,0.362486,34.91,1898812.0,1708757935.015625,1
4.0,-23.7775,,,1898394.0,1708757935.0739584,1
4.0,-60.69,,,1898501.0,1708757935.1322916,1
4.0,-93.685,,,1898749.0,1708757935.190625,1
4.0,-107.13666666666666,,,1899469.0,1708757935.2489583,1
4.0,-77.49499999999999,0.363767,34.89,1900122.0,1708757935.3072917,1
4.0,-19.6525,,,1902071.0,1708757935.365625,1
4.0,26.385,,,1904111.0,1708757935.4239583,1
4.0,41.763333333333335,,,1906751.5,1708757935.4822917,1
4.0,41.39,0.362486,34.89,1909674.0,1708757935.540625,1
4.0,34.6275,,,1909595.5,1708757935.5989583,1
4.0,27.545,,,1906085.0,1708757935.6572917,1
4.0,19.58,,,1904307.0,1708757935.715625,1
4.0,-0.7549999999999999,0.363767,34.89,1902977.0,1708757935.7739584,1
4.0,-26.515,,,1902918.0,1708757935.8322916,1
4.0,-49.74333333333334,,,1903632.0,1708757935.890625,1
4.0,-69.56,,,1904208.0,1708757935.9489584,1
4.0,-54.9825,0.365047,34.89,1905289.5,1708757936.0072916,1
4.0,-5.825000000000001,,,1906770.0,1708757936.065625,1
4.0,24.46666666666667,,,1909206.5,1708757936.1239583,1
4.0,33.487500000000004,,,1912761.0,1708757936.1822917,1
4.0,40.7775,,,1917160.5,1708757936.240625,1
4.0,61.545,0.365047,34.89,1918260.0,1708757936.2989583,1
4.0,79.41333333333333,,,1916039.0,1708757936.3572917,1
4.0,96.4475,,,1914781.0,1708757936.415625,1
4.0,99.65,,,1914560.0,1708757936.4739583,1
4.0,73.67750000000001,0.362486,34.89,1915937.0,1708757936.5322917,1
4.0,31.343333333333334,,,1918435.5,1708757936.590625,1
4.0,-20.0375,,,1919885.0,1708757936.6489584,1
4.0,-45.362500000000004,,,1921260.0,1708757936.7072916,1
4.0,-26.413333333333338,0.362486,34.89,1922325.0,1708757936.765625,1
4.0,-7.845000000000001,,,1923350.0,1708757936.8239584,1
4.0,0.05499999999999999,,,1925187.0,1708757936.8822916,1
4.0,2.8725,,,1925795.0,1708757936.940625,1
4.0,7.406666666666666,,,1920405.5,1708757936.9989583,1
4.0,10.067499999999999,0.362486,34.89,1915670.0,1708757937.0572917,1
4.0,8.8825,,,1913095.5,1708757937.115625,1
4.0,-1.4324999999999999,,,1911913.0,1708757937.1739583,1
4.0,-15.90333333333333,,,1911692.5,1708757937.2322917,1
4.0,-33.1575,0.362486,34.89,1911463.0,1708757937.290625,1
4.0,-62.212500000000006,,,1912107.5,1708757937.3489583,1
4.0,-68.125,,,1913508.0,1708757937.4072917,1
4.0,-30.106666666666666,,,1914639.0,1708757937.465625,1
4.0,11.3475,0.362486,34.89,1916426.0,1708757937.5239584,1
4.0,32.0425,,,1918615.0,1708757937.5822916,1
4.0,34.43666666666667,,,1918330.0,1708757937.640625,1
4.0,30.975,,,1913086.0,1708757937.6989584,1
4.0,26.4675,0.363767,34.89,1908501.5,1708757937.7572916,1
4.0,22.847499999999997,,,1906124.0,1708757937.815625,1
4.0,16.12666666666667,,,1905188.0,1708757937.8739583,1
4.0,-1.2525,,,1904565.0,1708757937.9322917,1
4.0,-17.46,,,1903220.5,1708757937.990625,1
4.0,-34.72,0.362486,34.89,1902564.0,1708757938.0489583,1
4.0,-52.97,,,1903092.0,1708757938.1072917,1
4.0,-41.279999999999994,,,1904103.0,1708757938.165625,1
4.0,0.8700000000000001,,,1906121.0,1708757938.2239583,1
4.0,25.51,0.362486,34.89,1908129.5,1708757938.2822917,1
4.0,36.32333333333333,,,1909597.0,1708757938.340625,1
4.0,36.98,,,1905383.0,1708757938.3989584,1
4.0,33.652499999999996,,,1900346.0,1708757938.4572916,1
4.0,28.959999999999997,0.361205,34.89,1898300.5,1708757938.515625,1
4.0,26.205,,,1897405.0,1708757938.5739584,1
4.0,20.5925,,,1898736.0,1708757938.6322916,1
4.0,15.145,,,1900362.0,1708757938.690625,1
4.0,6.063333333333333,,,1902189.5,1708757938.7489583,1
4.0,-3.9574999999999996,0.361205,34.89,1904235.0,1708757938.8072917,1
4.0,1.4574999999999996,,,1905884.0,1708757938.865625,1
4.0,35.655,,,1910956.0,1708757938.9239583,1
4.0,70.76333333333334,,,1915791.0,1708757938.9822917,1
4.0,85.5625,0.363767,34.89,1920819.0,1708757939.040625,1
4.0,76.425,,,1922329.0,1708757939.0989583,1
4.0,52.8925,,,1918997.0,1708757939.1572917,1
4.0,25.74,,,1918520.0,1708757939.215625,1
4.0,0.4525000000000001,0.362486,34.91,1920457.0,1708757939.2739584,1
4.0,-25.612499999999997,,,1922801.0,1708757939.3322916,1
4.0,-46.88333333333333,,,1926948.0,1708757939.390625,1
4.0,-60.222500000000004,,,1930321.5,1708757939.4489584,1
4.0,-73.1625,0.363767,34.91,1929979.0,1708757939.5072916,1
4.0,-66.825,,,1931462.5,1708757939.565625,1
4.0,-29.310000000000002,,,1934042.0,1708757939.6239583,1
4.0,8.855,,,1936323.0,1708757939.6822917,1
4.0,32.5125,,,1938248.0,1708757939.740625,1
4.0,45.195,0.359924,34.91,1936168.0,1708757939.7989583,1
4.0,59.910000000000004,,,1929976.0,1708757939.8572917,1
4.0,68.42500000000001,,,1925670.0,1708757939.915625,1
4.0,74.3275,,,1923316.0,1708757939.9739583,1
4.0,72.86,0.359924,34.91,1922454.0,1708757940.0322917,1
4.0,57.47333333333333,,,1922060.0,1708757940.090625,1
4.0,30.9375,,,1921633.0,1708757940.1489584,1
4.0,-27.1425,,,1921750.0,1708757940.2072916,1
4.0,-76.89333333333333,0.359924,34.87,1922067.0,1708757940.265625,1
4.0,-82.66,,,1923114.5,1708757940.3239584,1
4.0,-76.3575,,,1924621.0,1708757940.3822916,1
4.0,-55.317499999999995,,,1926507.0,1708757940.440625,1
4.0,2.033333333333333,,,1928147.0,1708757940.4989583,1
4.0,63.115,0.359924,34.87,1923370.0,1708757940.5572917,1
4.0,82.4975,,,1918134.0,1708757940.615625,1
4.0,43.8,,,1915388.5,1708757940.6739583,1
4.0,-22.126666666666665,,,1914005.0,1708757940.7322917,1
4.0,-89.9875,0.359924,34.87,1914000.0,1708757940.790625,1
4.0,-134.14249999999998,,,1914047.0,1708757940.8489583,1
4.0,-153.9575,,,1913853.0,1708757940.9072917,1
4.0,-155.09,,,1914403.5,1708757940.965625,1
4.0,-117.13,0.361205,34.87,1915566.0,1708757941.0239584,1
4.0,-53.17249999999999,,,1917447.5,1708757941.0822916,1
4.0,-13.076666666666666,,,1921050.0,1708757941.140625,1
4.0,4.5675,,,1925519.0,1708757941.1989584,1
4.0,4.38,0.356081,34.84,1928056.0,1708757941.2572916,1
4.0,-5.795,,,1924094.0,1708757941.315625,1
4.0,-12.833333333333334,,,1921194.0,1708757941.3739583,1
4.0,-14.7375,,,1920821.5,1708757941.4322917,1
4.0,-26.950000000000003,,,1921464.0,1708757941.490625,1
4.0,-52.7225,0.35352,34.84,1923277.5,1708757941.5489583,1
4.0,-79.54333333333334,,,1925085.0,1708757941.6072917,1
4.0,-106.53999999999999,,,1926403.0,1708757941.665625,1
4.0,-108.41499999999999,,,1929777.5,1708757941.7239583,1
4.0,-52.052499999999995,0.35352,34.84,1933006.0,1708757941.7822917,1
4.0,9.953333333333333,,,1938118.0,1708757941.840625,1
4.0,40.887499999999996,,,1949993.0,1708757941.8989584,1
4.0,52.515,,,1949980.0,1708757941.9572916,1
4.0,53.46,0.354801,34.84,1942460.0,1708757942.015625,1
4.0,66.6925,,,1937643.5,1708757942.0739584,1
4.0,135.135,,,1935255.0,1708757942.1322916,1
4.0,164.23749999999998,,,1934317.0,1708757942.190625,1
4.0,130.45333333333335,,,1932937.5,1708757942.2489583,1
4.0,100.7425,0.354801,34.87,1932530.0,1708757942.3072917,1
4.0,52.644999999999996,,,1932906.0,1708757942.365625,1
4.0,14.787500000000001,,,1934865.0,1708757942.4239583,1
4.0,11.156666666666666,,,1936439.0,1708757942.4822917,1
4.0,17.737499999999997,0.354801,34.87,1937835.0,1708757942.540625,1
4.0,10.822500000000002,,,1938038.5,1708757942.5989583,1
4.0,8.7325,,,1933627.0,1708757942.6572917,1
4.0,14.683333333333332,,,1923602.0,1708757942.715625,1
4.0,18.627499999999998,0.354801,34.87,1916063.0,1708757942.7739584,1
4.0,18.147499999999997,,,1913208.5,1708757942.8322916,1
4.0,-1.6166666666666665,,,1913638.0,1708757942.890625,1
4.0,-24.762500000000003,,,1916012.0,1708757942.9489584,1
4.0,-55.974999999999994,0.356081,34.87,1920785.5,1708757943.0072916,1
4.0,-70.0275,,,1925701.0,1708757943.065625,1
4.0,-34.56666666666666,,,1931393.5,1708757943.1239583,1
4.0,13.4125,,,1937468.0,1708757943.1822917,1
4.0,41.34,,,1942676.0,1708757943.240625,1
4.0,41.475,0.356081,34.84,1946039.0,1708757943.2989583,1
4.0,31.849999999999998,,,1945795.5,1708757943.3572917,1
4.0,21.1725,,,1939593.0,1708757943.415625,1
4.0,9.5775,,,1935711.5,1708757943.4739583,1
4.0,-5.95,0.357362,34.84,1934353.0,1708757943.5322917,1
4.0,-25.94333333333333,,,1934371.0,1708757943.590625,1
4.0,-42.5925,,,1935461.5,1708757943.6489584,1
4.0,-58.47500000000001,,,1936226.0,1708757943.7072916,1
4.0,-78.19,0.359924,34.84,1936751.0,1708757943.765625,1
4.0,-74.52000000000001,,,1938080.0,1708757943.8239584,1
4.0,-24.2,,,1940233.5,1708757943.8822916,1
4.0,21.99,,,1942310.0,1708757943.940625,1
4.0,32.67333333333334,,,1945127.5,1708757943.9989583,1
4.0,25.005000000000003,0.359924,34.84,1948882.0,1708757944.0572917,1
4.0,14.375,,,1946149.0,1708757944.115625,1
4.0,16.115000000000002,,,1939495.0,1708757944.1739583,1
4.0,37.45666666666667,,,1932939.0,1708757944.2322917,1
4.0,70.74,0.361205,34.84,1928068.0,1708757944.290625,1
4.0,93.37,,,1926540.0,1708757944.3489583,1
4.0,76.485,,,1924415.0,1708757944.4072917,1
4.0,37.31666666666667,,,1922717.0,1708757944.465625,1
4.0,-6.315000000000001,0.362486,34.84,1923559.0,1708757944.5239584,1
4.0,-55.4,,,1926953.0,1708757944.5822916,1
4.0,-61.04,,,1931060.0,1708757944.640625,1
4.0,-22.314999999999998,,,1934975.0,1708757944.6989584,1
4.0,14.647499999999999,0.362486,34.84,1936477.0,1708757944.7572916,1
4.0,22.845000000000002,,,1932253.0,1708757944.815625,1
4.0,18.113333333333333,,,1928162.0,1708757944.8739583,1
4.0,16.665,,,1926525.0,1708757944.9322917,1
4.0,21.3825,,,1927346.0,1708757944.990625,1
4.0,22.924999999999997,0.361205,34.84,1929078.0,1708757945.0489583,1
4.0,16.76,,,1930381.0,1708757945.1072917,1
4.0,6.79,,,1931804.5,1708757945.165625,1
4.0,-7.1875,,,1933748.0,1708757945.2239583,1
4.0,-25.64,0.361205,34.84,1936527.0,1708757945.2822917,1
4.0,-37.20333333333334,,,1939358.0,1708757945.340625,1
4.0,-55.12,,,1942646.0,1708757945.3989584,1
4.0,-69.3,,,1941410.0,1708757945.4572916,1
4.0,-41.03333333333333,0.362486,34.84,1936091.0,1708757945.515625,1
4.0,3.98,,,1932093.0,1708757945.5739584,1
4.0,27.39,,,1931410.0,1708757945.6322916,1
4.0,27.012500000000003,,,1932265.0,1708757945.690625,1
4.0,22.58,,,1933363.0,1708757945.7489583,1
4.0,20.9925,0.359924,34.84,1934426.0,1708757945.8072917,1
4.0,21.415,,,1935782.0,1708757945.865625,1
4.0,15.935,,,1937904.0,1708757945.9239583,1
4.0,2.9066666666666667,,,1940903.0,1708757945.9822917,1
4.0,-9.555,0.358643,34.84,1944598.0,1708757946.040625,1
4.0,-23.94,,,1948486.0,1708757946.0989583,1
4.0,-34.584999999999994,,,1951749.5,1708757946.1572917,1
4.0,-50.14333333333334,,,1948751.0,1708757946.215625,1
4.0,-59.089999999999996,0.358643,34.84,1942792.0,1708757946.2739584,1
4.0,-26.3825,,,1939251.0,1708757946.3322916,1
4.0,15.050000000000002,,,1938500.0,1708757946.390625,1
4.0,32.3875,,,1939200.0,1708757946.4489584,1
4.0,27.975,0.358643,34.84,1939946.0,1708757946.5072916,1
4.0,19.9375,,,1940817.0,1708757946.565625,1
4.0,18.326666666666668,,,1941620.0,1708757946.6239583,1
4.0,17.115000000000002,,,1944147.0,1708757946.6822917,1
4.0,12.11,,,1947063.0,1708757946.740625,1
4.0,-2.555,0.358643,34.84,1950425.0,1708757946.7989583,1
4.0,-16.353333333333335,,,1953544.0,1708757946.8572917,1
4.0,-35.99250000000001,,,1957137.0,1708757946.915625,1
4.0,-54.595,,,1960251.0,1708757946.9739583,1
4.0,-30.189999999999998,0.358643,34.84,1957562.0,1708757947.0322917,1
4.0,12.936666666666667,,,1952331.0,1708757947.090625,1
4.0,35.605,,,1949362.0,1708757947.1489584,1
4.0,34.629999999999995,,,1948954.0,1708757947.2072916,1
4.0,26.44666666666667,0.359924,34.84,1950059.0,1708757947.265625,1
4.0,23.6325,,,1950669.0,1708757947.3239584,1
4.0,21.1125,,,1951078.0,1708757947.3822916,1
4.0,15.732500000000002,,,1952538.0,1708757947.440625,1
4.0,0.19999999999999987,,,1954642.0,1708757947.4989583,1
4.0,-18.995,0.361205,34.84,1957665.0,1708757947.5572917,1
4.0,-41.83,,,1961258.0,1708757947.615625,1
4.0,-67.03999999999999,,,1962932.0,1708757947.6739583,1
4.0,-60.720000000000006,,,1966606.5,1708757947.7322917,1
4.0,-19.4525,0.359924,34.84,1970405.0,1708757947.790625,1
4.0,14.6725,,,1971260.5,1708757947.8489583,1
4.0,16.9,,,1965832.0,1708757947.9072917,1
4.0,6.03,,,1961753.0,1708757947.965625,1
4.0,-3.495,0.359924,34.84,1960236.0,1708757948.0239584,1
4.0,-14.125,,,1961072.0,1708757948.0822916,1
4.0,-22.77,,,1962150.0,1708757948.140625,1
4.0,-39.6225,,,1963125.5,1708757948.1989584,1
4.0,-68.0525,0.361205,34.84,1964349.0,1708757948.2572916,1
4.0,-85.905,,,1966509.0,1708757948.315625,1
4.0,-94.36666666666667,,,1969198.0,1708757948.3739583,1
4.0,-49.972500000000004,,,1971030.0,1708757948.4322917,1
4.0,85.95750000000001,,,1974389.0,1708757948.490625,1
4.0,184.275,0.362486,34.84,1977473.0,1708757948.5489583,1
4.0,203.22000000000003,,,1981371.5,1708757948.6072917,1
4.0,182.9875,,,1983144.0,1708757948.665625,1
4.0,118.975,,,1978703.5,1708757948.7239583,1
4.0,44.615,0.362486,34.84,1973385.0,1708757948.7822917,1
4.0,-2.2933333333333334,,,1970038.0,1708757948.840625,1
4.0,-29.4925,,,1972187.0,1708757948.8989584,1
4.0,-52.8525,,,1972570.0,1708757948.9572916,1
4.0,-64.82666666666667,0.361205,34.84,1973559.5,1708757949.015625,1
4.0,-73.15750000000001,,,1975439.0,1708757949.0739584,1
4.0,-83.7825,,,1977661.5,1708757949.1322916,1
4.0,-82.0725,,,1980930.0,1708757949.190625,1
4.0,-42.5,,,1984671.5,1708757949.2489583,1
4.0,6.105,0.361205,34.87,1987763.0,1708757949.3072917,1
4.0,28.18,,,1988717.5,1708757949.365625,1
4.0,26.0675,,,1984029.0,1708757949.4239583,1
4.0,19.44666666666667,,,1978766.5,1708757949.4822917,1
4.0,18.03,0.361205,34.87,1976200.0,1708757949.540625,1
4.0,19.4825,,,1976159.0,1708757949.5989583,1
4.0,11.9025,,,1977282.5,1708757949.6572917,1
4.0,-0.9466666666666664,,,1977722.0,1708757949.715625,1
4.0,-16.15,0.362486,34.87,1977755.5,1708757949.7739584,1
4.0,-30.5725,,,1978773.0,1708757949.8322916,1
4.0,-42.64666666666667,,,1980962.0,1708757949.890625,1
4.0,-61.1875,,,1983415.0,1708757949.9489584,1
4.0,-54.0025,0.361205,34.87,1986259.5,1708757950.0072916,1
4.0,-0.21750000000000025,,,1989008.0,1708757950.065625,1
4.0,36.1,,,1984395.0,1708757950.1239583,1
4.0,44.962500000000006,,,1976892.0,1708757950.1822917,1
4.0,39.715,,,1972691.0,1708757950.240625,1
4.0,33.615,0.359924,34.87,1970405.0,1708757950.2989583,1
4.0,33.20666666666667,,,1970354.0,1708757950.3572917,1
4.0,31.635,,,1969452.0,1708757950.415625,1
4.0,20.8125,,,1968586.0,1708757950.4739583,1
4.0,3.4525000000000006,0.359924,34.87,1968347.5,1708757950.5322917,1
4.0,-12.013333333333335,,,1969468.0,1708757950.590625,1
4.0,-25.902500000000003,,,1971198.5,1708757950.6489584,1
4.0,-46.09,,,1973585.0,1708757950.7072916,1
4.0,-53.026666666666664,0.361205,34.87,1975666.0,1708757950.765625,1
4.0,-15.8325,,,1976834.0,1708757950.8239584,1
4.0,32.64,,,1969678.5,1708757950.8822916,1
4.0,43.9075,,,1962111.0,1708757950.940625,1
4.0,34.376666666666665,,,1959415.0,1708757950.9989583,1
4.0,25.6625,0.363767,34.87,1957282.0,1708757951.0572917,1
4.0,23.645,,,1956718.0,1708757951.115625,1
4.0,22.5675,,,1955836.5,1708757951.1739583,1
4.0,12.143333333333333,,,1954830.0,1708757951.2322917,1
4.0,-2.505,0.362486,34.89,1955228.5,1708757951.290625,1
4.0,-19.745,,,1956388.0,1708757951.3489583,1
4.0,-39.775,,,1958234.5,1708757951.4072917,1
4.0,-52.51333333333333,,,1959881.0,1708757951.465625,1
4.0,-70.8125,0.365047,34.89,1961965.0,1708757951.5239584,1
4.0,-74.49000000000001,,,1960508.0,1708757951.5822916,1
4.0,-31.323333333333334,,,1954643.0,1708757951.640625,1
4.0,16.185000000000002,,,1947052.0,1708757951.6989584,1
4.0,42.19499999999999,0.366328,34.89,1943051.0,1708757951.7572916,1
4.0,45.9625,,,1941344.5,1708757951.815625,1
4.0,38.88333333333333,,,1940538.0,1708757951.8739583,1
4.0,31.54,,,1939663.0,1708757951.9322917,1
4.0,26.89,,,1939040.0,1708757951.990625,1
4.0,16.9625,0.367609,34.89,1939840.0,1708757952.0489583,1
4.0,4.946666666666667,,,1941272.0,1708757952.1072917,1
4.0,-3.0175,,,1943338.5,1708757952.165625,1
4.0,-16.635,,,1945708.0,1708757952.2239583,1
4.0,-26.2225,0.367609,34.89,1948142.5,1708757952.2822917,1
4.0,-36.34,,,1950093.0,1708757952.340625,1
4.0,-53.614999999999995,,,1947512.0,1708757952.3989584,1
4.0,-33.835,,,1939110.0,1708757952.4572916,1
4.0,18.57,0.367609,34.89,1933131.0,1708757952.515625,1
4.0,49.8825,,,1930588.0,1708757952.5739584,1
4.0,56.64750000000001,,,1929699.0,1708757952.6322916,1
4.0,49.34250000000001,,,1928700.5,1708757952.690625,1
4.0,40.92666666666667,,,1927242.0,1708757952.7489583,1
4.0,30.9675,0.367609,34.89,1926197.0,1708757952.8072917,1
4.0,19.265,,,1926888.0,1708757952.865625,1
4.0,3.4975000000000005,,,1929906.5,1708757952.9239583,1
4.0,-6.583333333333333,,,1933439.0,1708757952.9822917,1
4.0,-14.762500000000001,0.36889,34.89,1935683.0,1708757953.040625,1
4.0,-28.225,,,1939255.5,1708757953.0989583,1
4.0,-43.4525,,,1940178.0,1708757953.1572917,1
4.0,-69.86333333333334,,,1933552.5,1708757953.215625,1
4.0,-79.485,0.36889,34.87,1927689.0,1708757953.2739584,1
4.0,-38.565,,,1925396.5,1708757953.3322916,1
4.0,-0.2966666666666666,,,1924532.0,1708757953.390625,1
4.0,14.495000000000001,,,1924654.5,1708757953.4489584,1
4.0,19.2075,0.365047,34.87,1924326.0,1708757953.5072916,1
4.0,21.385,,,1924845.5,1708757953.565625,1
4.0,21.53333333333333,,,1926488.0,1708757953.6239583,1
4.0,16.387500000000003,,,1928811.5,1708757953.6822917,1
4.0,0.9075,,,1931333.0,1708757953.740625,1
4.0,-26.340000000000003,0.36889,34.87,1933327.0,1708757953.7989583,1
4.0,-53.71666666666666,,,1935948.0,1708757953.8572917,1
4.0,-76.725,,,1939032.0,1708757953.915625,1
4.0,-102.57,,,1938500.0,1708757953.9739583,1
4.0,-124.5725,0.366328,34.87,1931806.0,1708757954.0322917,1
4.0,-117.67,,,1926023.5,1708757954.090625,1
4.0,-40.82,,,1922966.0,1708757954.1489584,1
4.0,117.23249999999999,,,1921966.0,1708757954.2072916,1
4.0,219.89666666666668,0.365047,34.89,1921974.0,1708757954.265625,1
4.0,226.22750000000002,,,1921861.5,1708757954.3239584,1
4.0,207.37,,,1922171.0,1708757954.3822916,1
4.0,176.3475,,,1923171.0,1708757954.440625,1
4.0,119.67,,,1925373.5,1708757954.4989583,1
4.0,43.6025,0.366328,34.89,1928197.0,1708757954.5572917,1
4.0,-37.82,,,1931079.5,1708757954.615625,1
4.0,-95.8825,,,1934928.0,1708757954.6739583,1
4.0,-123.14333333333332,,,1937006.5,1708757954.7322917,1
4.0,-137.59,0.366328,34.89,1939170.0,1708757954.790625,1
4.0,-135.34,,,1935675.0,1708757954.8489583,1
4.0,-83.72,,,1930492.0,1708757954.9072917,1
4.0,-35.50666666666667,,,1928111.5,1708757954.965625,1
4.0,-8.315,0.367609,34.89,1926961.0,1708757955.0239584,1
4.0,0.9075,,,1927353.0,1708757955.0822916,1
4.0,3.496666666666666,,,1927457.0,1708757955.140625,1
4.0,10.975000000000001,,,1927190.0,1708757955.1989584,1
4.0,12.184999999999999,0.36889,34.89,1928105.5,1708757955.2572916,1
4.0,5.569999999999999,,,1929449.0,1708757955.315625,1
4.0,-6.07,,,1931622.0,1708757955.3739583,1
4.0,-24.645000000000003,,,1934002.0,1708757955.4322917,1
4.0,-46.325,,,1936560.5,1708757955.490625,1
4.0,-75.96249999999999,0.366328,34.89,1939234.0,1708757955.5489583,1
4.0,-95.13333333333333,,,1941823.0,1708757955.6072917,1
4.0,-68.97999999999999,,,1939810.0,1708757955.665625,1
4.0,-14.4225,,,1935040.0,1708757955.7239583,1
4.0,21.035,0.366328,34.89,1929426.0,1708757955.7822917,1
4.0,33.339999999999996,,,1926146.0,1708757955.840625,1
4.0,32.5475,,,1924838.5,1708757955.8989584,1
4.0,40.475,,,1924745.0,1708757955.9572916,1
4.0,54.77,0.36889,34.89,1924177.0,1708757956.015625,1
4.0,69.05,,,1924139.0,1708757956.0739584,1
4.0,64.06,,,1925208.0,1708757956.1322916,1
4.0,36.9725,,,1927322.0,1708757956.190625,1
4.0,6.353333333333334,,,1929797.5,1708757956.2489583,1
4.0,-20.6925,0.367609,34.89,1932663.0,1708757956.3072917,1
4.0,-21.035,,,1935957.0,1708757956.365625,1
4.0,23.6125,,,1939371.0,1708757956.4239583,1
4.0,51.68,,,1936903.5,1708757956.4822917,1
4.0,49.8125,0.371452,34.89,1930335.0,1708757956.540625,1
4.0,29.32,,,1927129.0,1708757956.5989583,1
4.0,20.0775,,,1924758.0,1708757956.6572917,1
4.0,21.653333333333332,,,1924196.0,1708757956.715625,1
4.0,20.9825,0.371452,34.89,1924110.5,1708757956.7739584,1
4.0,7.352499999999999,,,1923658.0,1708757956.8322916,1
4.0,-21.303333333333335,,,1923902.0,1708757956.890625,1
4.0,-52.1075,,,1925482.0,1708757956.9489584,1
4.0,-84.5375,0.370171,34.89,1927952.5,1708757957.0072916,1
4.0,-103.5275,,,1930920.0,1708757957.065625,1
4.0,-76.01666666666667,,,1934099.0,1708757957.1239583,1
4.0,-18.577499999999997,,,1937818.0,1708757957.1822917,1
4.0,22.955,,,1938118.0,1708757957.240625,1
4.0,33.235,0.372733,34.89,1932531.0,1708757957.2989583,1
4.0,25.580000000000002,,,1926909.0,1708757957.3572917,1
4.0,8.457500000000001,,,1924700.0,1708757957.415625,1
4.0,-7.785,,,1923944.0,1708757957.4739583,1
4.0,-21.072499999999998,0.372733,34.89,1923781.0,1708757957.5322917,1
4.0,-37.94,,,1922814.0,1708757957.590625,1
4.0,-34.435,,,1922913.5,1708757957.6489584,1
4.0,9.0125,,,1923984.0,1708757957.7072916,1
4.0,31.72,0.372733,34.89,1925605.0,1708757957.765625,1
4.0,21.2375,,,1927087.0,1708757957.8239584,1
4.0,31.932499999999997,,,1928117.0,1708757957.8822916,1
4.0,70.5325,,,1931031.0,1708757957.940625,1
4.0,81.93,,,1933332.0,1708757957.9989583,1
4.0,72.5625,0.371452,34.89,1928082.0,1708757958.0572917,1
4.0,55.06,,,1921916.0,1708757958.115625,1
4.0,40.6175,,,1918265.0,1708757958.1739583,1
4.0,29.94666666666667,,,1916766.0,1708757958.2322917,1
4.0,15.217499999999998,0.371452,34.89,1916908.0,1708757958.290625,1
4.0,-2.8425,,,1916182.0,1708757958.3489583,1
4.0,-21.545,,,1917004.0,1708757958.4072917,1
4.0,-33.63666666666666,,,1920261.0,1708757958.465625,1
4.0,-45.36749999999999,0.371452,34.89,1922375.0,1708757958.5239584,1
4.0,-63.995000000000005,,,1925192.5,1708757958.5822916,1
4.0,-54.449999999999996,,,1929076.0,1708757958.640625,1
4.0,-11.525,,,1932435.0,1708757958.6989584,1
4.0,19.1425,0.370171,34.89,1932202.0,1708757958.7572916,1
4.0,26.6225,,,1925188.0,1708757958.815625,1
4.0,23.349999999999998,,,1920525.0,1708757958.8739583,1
4.0,14.107500000000002,,,1918221.5,1708757958.9322917,1
4.0,6.0875,,,1918062.0,1708757958.990625,1
4.0,-5.282500000000001,0.36889,34.89,1918200.5,1708757959.0489583,1
4.0,-20.953333333333333,,,1917840.0,1708757959.1072917,1
4.0,-41.915,,,1918830.5,1708757959.165625,1
4.0,-66.3275,,,1920698.0,1708757959.2239583,1
4.0,-82.95500000000001,0.36889,34.91,1922234.0,1708757959.2822917,1
4.0,-108.97333333333334,,,1924705.0,1708757959.340625,1
4.0,-115.9975,,,1926919.0,1708757959.3989584,1
4.0,-29.542499999999997,,,1928843.5,1708757959.4572916,1
4.0,60.69333333333333,0.36889,34.91,1925094.0,1708757959.515625,1
4.0,101.3725,,,1918682.0,1708757959.5739584,1
4.0,120.935,,,1915491.0,1708757959.6322916,1
4.0,129.8125,,,1914554.0,1708757959.690625,1
4.0,116.41666666666667,,,1914669.0,1708757959.7489583,1
4.0,90.36500000000001,0.36889,34.91,1914860.0,1708757959.8072917,1
4.0,56.940000000000005,,,1914952.0,1708757959.865625,1
4.0,15.415,,,1915527.0,1708757959.9239583,1
4.0,-21.343333333333334,,,1917089.5,1708757959.9822917,1
4.0,-48.697500000000005,0.370171,34.91,1919188.0,1708757960.040625,1
4.0,-74.4025,,,1922049.0,1708757960.0989583,1
4.0,-79.5825,,,1925015.0,1708757960.1572917,1
4.0,-40.18666666666666,,,1927018.0,1708757960.215625,1
4.0,7.15,0.36889,34.89,1922460.0,1708757960.2739584,1
4.0,33.245000000000005,,,1915670.0,1708757960.3322916,1
4.0,36.99666666666667,,,1911900.0,1708757960.390625,1
4.0,31.509999999999998,,,1910325.5,1708757960.4489584,1
4.0,21.045,0.36889,34.89,1910248.0,1708757960.5072916,1
4.0,5.1975,,,1910350.0,1708757960.565625,1
4.0,-11.469999999999999,,,1910089.0,1708757960.6239583,1
4.0,-32.45,,,1911103.0,1708757960.6822917,1
4.0,-53.0475,,,1912891.0,1708757960.740625,1
4.0,-66.29749999999999,0.370171,34.89,1915316.5,1708757960.7989583,1
4.0,-84.60333333333334,,,1918119.0,1708757960.8572917,1
4.0,-89.6975,,,1920107.0,1708757960.915625,1
4.0,-50.8,,,1922557.0,1708757960.9739583,1
4.0,-4.84,0.36889,34.89,1918987.0,1708757961.0322917,1
4.0,20.89,,,1911704.0,1708757961.090625,1
4.0,35.08,,,1907563.0,1708757961.1489584,1
4.0,42.754999999999995,,,1905751.0,1708757961.2072916,1
4.0,43.32,0.371452,34.93,1905780.0,1708757961.265625,1
4.0,37.830000000000005,,,1906176.0,1708757961.3239584,1
4.0,30.1775,,,1906709.0,1708757961.3822916,1
4.0,12.1275,,,1908014.5,1708757961.440625,1
4.0,-7.343333333333334,,,1910272.0,1708757961.4989583,1
4.0,-24.575,0.372733,34.93,1912268.0,1708757961.5572917,1
4.0,-48.084999999999994,,,1915542.5,1708757961.615625,1
4.0,-48.6525,,,1918803.0,1708757961.6739583,1
4.0,-11.626666666666667,,,1922239.5,1708757961.7322917,1
4.0,18.259999999999998,0.372733,34.93,1923648.0,1708757961.790625,1
4.0,25.2275,,,1917914.0,1708757961.8489583,1
4.0,16.82,,,1913277.0,1708757961.9072917,1
4.0,13.956666666666665,,,1911051.0,1708757961.965625,1
4.0,19.65,0.371452,34.93,1910777.0,1708757962.0239584,1
4.0,27.5575,,,1911255.5,1708757962.0822916,1
4.0,26.02,,,1911810.0,1708757962.140625,1
4.0,15.595,,,1912402.0,1708757962.1989584,1
4.0,-0.94,0.374014,34.89,1914105.0,1708757962.2572916,1
4.0,-20.1125,,,1916641.0,1708757962.315625,1
4.0,-44.623333333333335,,,1919775.5,1708757962.3739583,1
4.0,-59.215,,,1922817.0,1708757962.4322917,1
4.0,-28.2525,,,1926453.0,1708757962.490625,1
4.0,12.157499999999999,0.374014,34.89,1927414.0,1708757962.5489583,1
4.0,28.459999999999997,,,1921492.5,1708757962.6072917,1
4.0,33.04750000000001,,,1917109.0,1708757962.665625,1
4.0,27.405,,,1915739.0,1708757962.7239583,1
4.0,21.317500000000003,0.374014,34.89,1915607.0,1708757962.7822917,1
4.0,15.643333333333336,,,1916808.0,1708757962.840625,1
4.0,5.8175,,,1917621.0,1708757962.8989584,1
4.0,-5.4875,,,1918265.0,1708757962.9572916,1
4.0,-18.013333333333335,0.375294,34.89,1920081.0,1708757963.015625,1
4.0,-30.387499999999996,,,1922873.0,1708757963.0739584,1
4.0,-46.692499999999995,,,1926098.5,1708757963.1322916,1
4.0,-58.9375,,,1929502.0,1708757963.190625,1
4.0,-31.269999999999996,,,1932870.0,1708757963.2489583,1
4.0,19.4425,0.374014,34.91,1932748.0,1708757963.3072917,1
4.0,51.375,,,1927169.5,1708757963.365625,1
4.0,58.69500000000001,,,1923801.0,1708757963.4239583,1
4.0,51.093333333333334,,,1922953.5,1708757963.4822917,1
4.0,42.644999999999996,0.374014,34.91,1923424.0,1708757963.540625,1
4.0,36.995,,,1924446.0,1708757963.5989583,1
4.0,29.9775,,,1925529.5,1708757963.6572917,1
4.0,15.366666666666667,,,1926526.0,1708757963.715625,1
4.0,-3.5275000000000003,0.371452,34.91,1929204.5,1708757963.7739584,1
4.0,-23.432499999999997,,,1932260.0,1708757963.8322916,1
4.0,-44.10333333333333,,,1936746.5,1708757963.890625,1
4.0,-62.519999999999996,,,1940843.0,1708757963.9489584,1
4.0,-40.61,0.375294,34.91,1946201.5,1708757964.0072916,1
4.0,1.91,,,1947673.0,1708757964.065625,1
4.0,18.43,,,1943348.5,1708757964.1239583,1
4.0,20.647499999999997,,,1940287.0,1708757964.1822917,1
4.0,15.945,,,1939074.0,1708757964.240625,1
4.0,9.8475,0.370171,34.91,1939086.5,1708757964.2989583,1
4.0,4.516666666666667,,,1939260.0,1708757964.3572917,1
4.0,-3.3449999999999998,,,1939355.0,1708757964.415625,1
4.0,-14.4375,,,1939890.0,1708757964.4739583,1
4.0,-36.162499999999994,0.371452,34.91,1941510.0,1708757964.5322917,1
4.0,-50.836666666666666,,,1943445.0,1708757964.590625,1
4.0,-64.2125,,,1945822.5,1708757964.6489584,1
4.0,-84.23,,,1948242.0,1708757964.7072916,1
4.0,-64.94666666666667,0.371452,34.91,1950881.0,1708757964.765625,1
4.0,-22.7525,,,1950271.0,1708757964.8239584,1
4.0,22.22,,,1944673.5,1708757964.8822916,1
4.0,106.5625,,,1941039.0,1708757964.940625,1
4.0,125.04,,,1939306.0,1708757964.9989583,1
4.0,75.5325,0.372733,34.91,1938205.0,1708757965.0572917,1
4.0,46.7725,,,1938210.0,1708757965.115625,1
4.0,61.337500000000006,,,1938712.0,1708757965.1739583,1
4.0,53.89666666666667,,,1939164.0,1708757965.2322917,1
4.0,20.9275,0.372733,34.91,1940384.0,1708757965.290625,1
4.0,-15.265,,,1942487.0,1708757965.3489583,1
4.0,-48.61,,,1944827.0,1708757965.4072917,1
4.0,-74.45,,,1947537.0,1708757965.465625,1
4.0,-88.62750000000001,0.374014,34.91,1951019.5,1708757965.5239584,1
4.0,-53.292500000000004,,,1951298.0,1708757965.5822916,1
4.0,-8.656666666666666,,,1945436.0,1708757965.640625,1
4.0,14.862499999999999,,,1941233.5,1708757965.6989584,1
4.0,24.2025,0.375294,34.91,1940875.0,1708757965.7572916,1
4.0,23.5425,,,1941490.0,1708757965.815625,1
4.0,18.793333333333333,,,1943311.0,1708757965.8739583,1
4.0,14.0225,,,1944230.5,1708757965.9322917,1
4.0,4.285,,,1945480.0,1708757965.990625,1
4.0,-10.285,0.377856,34.91,1947292.5,1708757966.0489583,1
4.0,-22.956666666666667,,,1949447.0,1708757966.1072917,1
4.0,-31.35,,,1951992.5,1708757966.165625,1
4.0,-38.5475,,,1954711.0,1708757966.2239583,1
4.0,-57.790000000000006,0.377856,34.91,1957779.0,1708757966.2822917,1
4.0,-68.71666666666665,,,1958074.0,1708757966.340625,1
4.0,-43.6875,,,1954808.0,1708757966.3989584,1
4.0,-1.7900000000000003,,,1950223.5,1708757966.4572916,1
4.0,11.863333333333335,0.380418,34.91,1947533.0,1708757966.515625,1
4.0,15.922500000000001,,,1946573.5,1708757966.5739584,1
4.0,8.7425,,,1946864.0,1708757966.6322916,1
4.0,-24.395000000000003,,,1947263.5,1708757966.690625,1
4.0,-6.510000000000001,,,1947980.0,1708757966.7489583,1
4.0,67.13749999999999,0.379137,34.91,1949402.5,1708757966.8072917,1
4.0,76.675,,,1951393.0,1708757966.865625,1
4.0,49.9725,,,1953822.0,1708757966.9239583,1
4.0,59.43666666666667,,,1956439.0,1708757966.9822917,1
4.0,56.285,0.395788,34.91,1958162.0,1708757967.040625,1
4.0,9.059999999999999,,,1960717.0,1708757967.0989583,1
4.0,-20.4775,,,1958418.0,1708757967.1572917,1
4.0,-4.92,,,1953171.5,1708757967.215625,1
4.0,11.3,0.379137,34.89,1949880.0,1708757967.2739584,1
4.0,18.165,,,1948116.0,1708757967.3322916,1
4.0,14.466666666666667,,,1947779.0,1708757967.390625,1
4.0,9.4125,,,1947795.0,1708757967.4489584,1
4.0,10.61,0.380418,34.89,1947638.0,1708757967.5072916,1
4.0,7.762499999999999,,,1948658.0,1708757967.565625,1
4.0,-2.68,,,1950475.0,1708757967.6239583,1
4.0,-16.95,,,1952556.0,1708757967.6822917,1
4.0,-33.32,,,1954802.0,1708757967.740625,1
4.0,-46.97,0.381699,34.89,1956439.0,1708757967.7989583,1
4.0,-56.95666666666667,,,1959275.0,1708757967.8572917,1
4.0,-72.0475,,,1960403.0,1708757967.915625,1
4.0,-59.805,,,1955054.0,1708757967.9739583,1
4.0,-9.5275,0.380418,34.89,1950565.0,1708757968.0322917,1
4.0,18.183333333333334,,,1948449.0,1708757968.090625,1
4.0,27.6475,,,1947573.0,1708757968.1489584,1
4.0,25.9375,,,1947847.0,1708757968.2072916,1
4.0,18.666666666666668,0.380418,34.91,1948109.0,1708757968.265625,1
4.0,14.052499999999998,,,1948316.0,1708757968.3239584,1
4.0,3.36,,,1950161.5,1708757968.3822916,1
4.0,-4.95,,,1953020.0,1708757968.440625,1
4.0,-16.976666666666667,,,1955654.0,1708757968.4989583,1
4.0,-27.225,0.380418,34.91,1959461.0,1708757968.5572917,1
4.0,-3.7624999999999993,,,1962924.5,1708757968.615625,1
4.0,11.53,,,1966354.0,1708757968.6739583,1
4.0,6.88,,,1966494.0,1708757968.7322917,1
4.0,30.295,0.380418,34.91,1962307.0,1708757968.790625,1
4.0,40.4075,,,1958736.0,1708757968.8489583,1
4.0,52.427499999999995,,,1956809.0,1708757968.9072917,1
4.0,48.376666666666665,,,1957400.0,1708757968.965625,1
4.0,35.84,0.380418,34.91,1960892.0,1708757969.0239584,1
4.0,22.2125,,,1962904.5,1708757969.0822916,1
4.0,13.043333333333335,,,1965407.0,1708757969.140625,1
4.0,0.057499999999999885,,,1966834.0,1708757969.1989584,1
4.0,-15.6775,0.380418,34.91,1968914.5,1708757969.2572916,1
4.0,-29.674999999999997,,,1971015.0,1708757969.315625,1
4.0,-41.77666666666667,,,1973268.0,1708757969.3739583,1
4.0,-58.2325,,,1975521.0,1708757969.4322917,1
4.0,-69.495,,,1978078.5,1708757969.490625,1
4.0,-37.5375,0.381699,34.91,1976555.0,1708757969.5489583,1
4.0,1.1433333333333335,,,1971538.0,1708757969.6072917,1
4.0,19.02,,,1968623.0,1708757969.665625,1
4.0,24.759999999999998,,,1967352.5,1708757969.7239583,1
4.0,18.740000000000002,0.38426,34.91,1967400.0,1708757969.7822917,1
4.0,11.049999999999999,,,1967765.0,1708757969.840625,1
4.0,4.745,,,1968322.5,1708757969.8989584,1
4.0,-1.2374999999999998,,,1969211.0,1708757969.9572916,1
4.0,-11.366666666666667,0.388103,34.91,1970755.0,1708757970.015625,1
4.0,-23.5225,,,1972889.0,1708757970.0739584,1
4.0,-36.9925,,,1975353.0,1708757970.1322916,1
4.0,-56.06999999999999,,,1978025.0,1708757970.190625,1
4.0,-66.60000000000001,,,1981122.5,1708757970.2489583,1
4.0,-46.1775,0.390665,34.93,1983491.0,1708757970.3072917,1
4.0,-6.902500000000001,,,1979896.0,1708757970.365625,1
4.0,8.7325,,,1975965.0,1708757970.4239583,1
4.0,16.69333333333333,,,1974544.0,1708757970.4822917,1
4.0,45.3425,0.390665,34.93,1973317.0,1708757970.540625,1
4.0,70.86,,,1973659.0,1708757970.5989583,1
4.0,74.7025,,,1974077.5,1708757970.6572917,1
4.0,69.79666666666667,,,1974746.0,1708757970.715625,1
4.0,51.485,0.394507,34.93,1975961.0,1708757970.7739584,1
4.0,17.79,,,1977489.0,1708757970.8322916,1
4.0,-10.386666666666667,,,1979996.0,1708757970.890625,1
4.0,-35.08,,,1982876.0,1708757970.9489584,1
4.0,-58.68,0.394507,34.93,1986114.0,1708757971.0072916,1
4.0,-37.192499999999995,,,1989891.0,1708757971.065625,1
4.0,0.6666666666666666,,,1990637.0,1708757971.1239583,1
4.0,22.3175,,,1986879.5,1708757971.1822917,1
4.0,32.08,,,1983817.0,1708757971.240625,1
4.0,30.8125,0.394507,34.89,1982228.5,1708757971.2989583,1
4.0,27.870000000000005,,,1982011.0,1708757971.3572917,1
4.0,22.119999999999997,,,1982146.0,1708757971.415625,1
4.0,10.434999999999999,,,1982315.0,1708757971.4739583,1
4.0,-6.015,0.397069,34.89,1983050.5,1708757971.5322917,1
4.0,-20.830000000000002,,,1984532.0,1708757971.590625,1
4.0,-33.025,,,1986685.0,1708757971.6489584,1
4.0,-51.315000000000005,,,1988856.0,1708757971.7072916,1
4.0,-62.51,0.39835,34.89,1991274.0,1708757971.765625,1
4.0,-41.275,,,1993695.0,1708757971.8239584,1
4.0,-0.6875,,,1993733.0,1708757971.8822916,1
4.0,22.59,,,1989262.5,1708757971.940625,1
4.0,28.956666666666667,,,1985337.0,1708757971.9989583,1
4.0,27.285,0.400912,34.89,1983203.0,1708757972.0572917,1
4.0,26.4675,,,1982467.0,1708757972.115625,1
4.0,23.244999999999997,,,1982890.0,1708757972.1739583,1
4.0,14.43,,,1983262.0,1708757972.2322917,1
4.0,2.6925,0.400912,34.89,1983653.5,1708757972.290625,1
4.0,-12.55,,,1984940.0,1708757972.3489583,1
4.0,-25.1125,,,1986702.5,1708757972.4072917,1
4.0,-38.61000000000001,,,1988876.0,1708757972.465625,1
4.0,-49.934999999999995,0.402193,34.89,1990438.0,1708757972.5239584,1
4.0,-26.1375,,,1993078.0,1708757972.5822916,1
4.0,18.24,,,1994305.0,1708757972.640625,1
4.0,40.942499999999995,,,1989926.0,1708757972.6989584,1
4.0,49.355,0.400912,34.89,1985144.0,1708757972.7572916,1
4.0,48.6375,,,1982419.0,1708757972.815625,1
4.0,43.443333333333335,,,1980949.0,1708757972.8739583,1
4.0,33.41,,,1980734.5,1708757972.9322917,1
4.0,20.975,,,1980517.0,1708757972.990625,1
4.0,5.3725000000000005,0.402193,34.89,1980389.0,1708757973.0489583,1
4.0,-8.36,,,1980792.5,1708757973.1072917,1
4.0,-17.265,,,1982086.0,1708757973.165625,1
4.0,-30.490000000000002,,,1983775.0,1708757973.2239583,1
4.0,-41.8575,0.403474,34.91,1985895.0,1708757973.2822917,1
4.0,-22.746666666666666,,,1987785.5,1708757973.340625,1
4.0,8.07,,,1989052.0,1708757973.3989584,1
4.0,22.964999999999996,,,1983851.0,1708757973.4572916,1
4.0,23.543333333333333,0.403474,34.91,1978398.0,1708757973.515625,1
4.0,15.88,,,1975081.0,1708757973.5739584,1
4.0,4.02,,,1973314.0,1708757973.6322916,1
4.0,-4.2,,,1973073.5,1708757973.690625,1
4.0,-10.613333333333332,,,1972941.0,1708757973.7489583,1
4.0,-21.5925,0.404754,34.91,1972711.0,1708757973.8072917,1
4.0,-33.644999999999996,,,1972992.5,1708757973.865625,1
4.0,-38.6225,,,1973822.0,1708757973.9239583,1
4.0,-46.48333333333333,,,1975133.5,1708757973.9822917,1
4.0,-57.459999999999994,0.403474,34.91,1976903.0,1708757974.040625,1
4.0,-43.3875,,,1978967.0,1708757974.0989583,1
4.0,-4.5249999999999995,,,1979848.0,1708757974.1572917,1
4.0,16.569999999999997,,,1973781.5,1708757974.215625,1
4.0,24.5425,0.403474,34.91,1968080.0,1708757974.2739584,1
4.0,23.845,,,1964604.0,1708757974.3322916,1
4.0,14.63,,,1962351.0,1708757974.390625,1
4.0,8.912500000000001,,,1962057.0,1708757974.4489584,1
4.0,9.0,0.403474,34.91,1961639.0,1708757974.5072916,1
4.0,0.635,,,1961304.0,1708757974.565625,1
4.0,-4.236666666666667,,,1961372.0,1708757974.6239583,1
4.0,-23.275,,,1962578.0,1708757974.6822917,1
4.0,-56.965,,,1964059.5,1708757974.740625,1
4.0,-43.615,0.404754,34.91,1965932.0,1708757974.7989583,1
4.0,-13.273333333333333,,,1968084.5,1708757974.8572917,1
4.0,16.4075,,,1969809.0,1708757974.915625,1
4.0,55.155,,,1964959.0,1708757974.9739583,1
4.0,81.4625,0.400912,34.91,1959138.0,1708757975.0322917,1
4.0,82.78,,,1955893.5,1708757975.090625,1
4.0,65.4525,,,1953396.0,1708757975.1489584,1
4.0,48.26,,,1954086.0,1708757975.2072916,1
4.0,36.233333333333334,0.399631,34.89,1954183.5,1708757975.265625,1
4.0,21.6375,,,1955397.0,1708757975.3239584,1
4.0,2.595,,,1958864.5,1708757975.3822916,1
4.0,-16.3875,,,1961464.0,1708757975.440625,1
4.0,-28.433333333333334,,,1964012.0,1708757975.4989583,1
4.0,-46.69,0.399631,34.89,1966153.0,1708757975.5572917,1
4.0,-66.85,,,1968132.5,1708757975.615625,1
4.0,-52.3725,,,1969103.0,1708757975.6739583,1
4.0,-17.846666666666668,,,1963565.0,1708757975.7322917,1
4.0,3.755,0.402193,34.89,1958239.0,1708757975.790625,1
4.0,15.1375,,,1955955.0,1708757975.8489583,1
4.0,16.2325,,,1953568.0,1708757975.9072917,1
4.0,11.586666666666666,,,1953072.0,1708757975.965625,1
4.0,10.719999999999999,0.400912,34.89,1952893.0,1708757976.0239584,1
4.0,9.9575,,,1953152.0,1708757976.0822916,1
4.0,0.4299999999999999,,,1954031.0,1708757976.140625,1
4.0,-13.247499999999999,,,1955713.0,1708757976.1989584,1
4.0,-32.435,0.400912,34.91,1957592.0,1708757976.2572916,1
4.0,-51.394999999999996,,,1959628.0,1708757976.315625,1
4.0,-71.31,,,1962014.0,1708757976.3739583,1
4.0,-85.5325,,,1963906.0,1708757976.4322917,1
4.0,-60.472500000000004,,,1962100.0,1708757976.490625,1
4.0,-28.5375,0.399631,34.91,1956477.5,1708757976.5489583,1
4.0,-12.24,,,1952589.0,1708757976.6072917,1
4.0,24.9575,,,1950541.5,1708757976.665625,1
4.0,68.9175,,,1949763.0,1708757976.7239583,1
4.0,87.1175,0.400912,34.91,1950028.0,1708757976.7822917,1
4.0,89.66000000000001,,,1950277.0,1708757976.840625,1
4.0,84.26249999999999,,,1951200.5,1708757976.8989584,1
4.0,57.985,,,1953015.0,1708757976.9572916,1
4.0,26.363333333333333,0.399631,34.91,1955444.0,1708757977.015625,1
4.0,-2.42,,,1958525.0,1708757977.0739584,1
4.0,-36.7625,,,1961580.0,1708757977.1322916,1
4.0,-65.08250000000001,,,1964457.0,1708757977.190625,1
4.0,-56.81666666666666,,,1965843.0,1708757977.2489583,1
4.0,-25.572499999999998,0.402193,34.91,1961923.0,1708757977.3072917,1
4.0,-1.475,,,1956773.0,1708757977.365625,1
4.0,11.805,,,1953997.0,1708757977.4239583,1
4.0,18.48333333333333,,,1952200.0,1708757977.4822917,1
4.0,24.7325,0.400912,34.91,1952588.5,1708757977.540625,1
4.0,25.5325,,,1952436.0,1708757977.5989583,1
4.0,19.0775,,,1952804.5,1708757977.6572917,1
4.0,9.87,,,1953914.0,1708757977.715625,1
4.0,-5.0975,0.402193,34.91,1955937.0,1708757977.7739584,1
4.0,-23.807499999999997,,,1957821.0,1708757977.8322916,1
4.0,-39.51,,,1959560.0,1708757977.890625,1
4.0,-62.07000000000001,,,1961828.5,1708757977.9489584,1
4.0,-61.879999999999995,0.406035,34.91,1964281.0,1708757978.0072916,1
4.0,-26.402499999999996,,,1961875.0,1708757978.065625,1
4.0,-3.4866666666666664,,,1957273.0,1708757978.1239583,1
4.0,6.8100000000000005,,,1954498.5,1708757978.1822917,1
4.0,9.5975,,,1952650.0,1708757978.240625,1
4.0,13.092500000000001,0.400912,34.91,1952807.0,1708757978.2989583,1
4.0,20.493333333333332,,,1953378.0,1708757978.3572917,1
4.0,24.2125,,,1953783.0,1708757978.415625,1
4.0,27.355,,,1955099.0,1708757978.4739583,1
4.0,23.115000000000002,0.402193,34.91,1956215.0,1708757978.5322917,1
4.0,9.283333333333333,,,1958777.0,1708757978.590625,1
4.0,1.6125,,,1961191.0,1708757978.6489584,1
4.0,2.0325000000000006,,,1963945.0,1708757978.7072916,1
4.0,-12.479999999999999,0.404754,34.91,1966809.0,1708757978.765625,1
4.0,5.029999999999999,,,1967570.5,1708757978.8239584,1
4.0,81.045,,,1963750.0,1708757978.8822916,1
4.0,104.06000000000002,,,1960572.5,1708757978.940625,1
4.0,46.69666666666666,,,1959334.0,1708757978.9989583,1
4.0,4.577500000000001,0.404754,34.91,1959444.5,1708757979.0572917,1
4.0,-0.025000000000000133,,,1960193.0,1708757979.115625,1
4.0,-1.4975,,,1960495.0,1708757979.1739583,1
4.0,-15.133333333333335,,,1960945.0,1708757979.2322917,1
4.0,-28.27,0.406035,34.91,1961955.0,1708757979.290625,1
4.0,-44.707499999999996,,,1964142.5,1708757979.3489583,1
4.0,-59.0375,,,1966431.0,1708757979.4072917,1
4.0,-71.21,,,1969004.0,1708757979.465625,1
4.0,-79.10000000000001,0.406035,34.91,1971798.0,1708757979.5239584,1
4.0,-48.4775,,,1973281.0,1708757979.5822916,1
4.0,-9.186666666666667,,,1970044.0,1708757979.640625,1
4.0,18.225,,,1966388.0,1708757979.6989584,1
4.0,39.900000000000006,0.406035,34.91,1964698.0,1708757979.7572916,1
4.0,46.417500000000004,,,1964476.5,1708757979.815625,1
4.0,46.64000000000001,,,1964837.0,1708757979.8739583,1
4.0,43.745,,,1964982.0,1708757979.9322917,1
4.0,35.6075,,,1965661.0,1708757979.990625,1
4.0,16.8125,0.406035,34.91,1966979.0,1708757980.0489583,1
4.0,-0.8466666666666667,,,1968709.5,1708757980.1072917,1
4.0,-20.42,,,1971128.0,1708757980.165625,1
4.0,-39.4825,,,1973535.0,1708757980.2239583,1
4.0,-55.192499999999995,0.411159,34.87,1976312.0,1708757980.2822917,1
4.0,-73.41333333333333,,,1978910.5,1708757980.340625,1
4.0,-68.98500000000001,,,1977785.0,1708757980.3989584,1
4.0,-20.9125,,,1973720.5,1708757980.4572916,1
4.0,17.723333333333333,0.404754,34.87,1971189.0,1708757980.515625,1
4.0,36.7975,,,1970507.0,1708757980.5739584,1
4.0,44.86,,,1970244.5,1708757980.6322916,1
4.0,42.6975,,,1970969.0,1708757980.690625,1
4.0,38.18,,,1971540.5,1708757980.7489583,1
4.0,37.4975,0.404754,34.87,1972654.0,1708757980.8072917,1
4.0,23.432499999999997,,,1974313.5,1708757980.865625,1
4.0,8.469999999999999,,,1976521.0,1708757980.9239583,1
4.0,-7.41,,,1980057.5,1708757980.9822917,1
4.0,-41.9375,0.406035,34.87,1983560.0,1708757981.040625,1
4.0,-19.94,,,1986814.5,1708757981.0989583,1
4.0,22.1325,,,1989207.0,1708757981.1572917,1
4.0,-11.686666666666667,,,1986020.0,1708757981.215625,1
4.0,-25.240000000000002,0.403474,34.89,1983557.0,1708757981.2739584,1
4.0,4.66,,,1982872.0,1708757981.3322916,1
4.0,25.150000000000002,,,1982509.5,1708757981.390625,1
4.0,19.9775,,,1983184.0,1708757981.4489584,1
4.0,13.85,0.403474,34.89,1983303.0,1708757981.5072916,1
4.0,10.719999999999999,,,1984009.0,1708757981.565625,1
4.0,10.493333333333332,,,1985565.0,1708757981.6239583,1
4.0,8.705,,,1987554.0,1708757981.6822917,1
4.0,-2.7175000000000002,,,1989463.0,1708757981.740625,1
4.0,-13.6075,0.403474,34.89,1991832.0,1708757981.7989583,1
4.0,-23.22,,,1994394.0,1708757981.8572917,1
4.0,-40.9525,,,1995271.0,1708757981.915625,1
4.0,-46.545,,,1992890.0,1708757981.9739583,1
4.0,-12.635,0.404754,34.89,1988827.5,1708757982.0322917,1
4.0,20.866666666666664,,,1986525.0,1708757982.090625,1
4.0,34.465,,,1985726.5,1708757982.1489584,1
4.0,32.6525,,,1986948.0,1708757982.2072916,1
4.0,25.823333333333334,0.404754,34.89,1988365.0,1708757982.265625,1
4.0,20.7125,,,1990074.0,1708757982.3239584,1
4.0,16.99,,,1993096.0,1708757982.3822916,1
4.0,9.2575,,,1995260.0,1708757982.440625,1
4.0,-2.2266666666666666,,,1996917.0,1708757982.4989583,1
4.0,-14.9475,0.406035,34.89,1998547.0,1708757982.5572917,1
4.0,-30.242500000000003,,,1999797.0,1708757982.615625,1
4.0,-46.02,,,2001786.5,1708757982.6739583,1
4.0,-66.35000000000001,,,2004195.0,1708757982.7322917,1
4.0,-67.59,0.407316,34.89,2003198.5,1708757982.790625,1
4.0,-28.9775,,,1998512.0,1708757982.8489583,1
4.0,10.3775,,,1994981.5,1708757982.9072917,1
4.0,26.673333333333336,,,1992943.0,1708757982.965625,1
4.0,26.715,0.409878,34.89,1991884.0,1708757983.0239584,1
4.0,21.5475,,,1991874.0,1708757983.0822916,1
4.0,15.04,,,1991489.0,1708757983.140625,1
4.0,9.92,,,1991503.0,1708757983.1989584,1
4.0,-4.390000000000001,0.409878,34.87,1992181.0,1708757983.2572916,1
4.0,-4.357500000000001,,,1993819.0,1708757983.315625,1
4.0,26.45,,,1994983.0,1708757983.3739583,1
4.0,18.974999999999998,,,1996884.0,1708757983.4322917,1
4.0,-2.12,,,1998655.0,1708757983.490625,1
4.0,21.580000000000002,0.411159,34.87,2000825.5,1708757983.5489583,1
4.0,-0.5100000000000003,,,2000919.0,1708757983.6072917,1
4.0,-30.627499999999998,,,1996185.5,1708757983.665625,1
4.0,8.24,,,1991987.0,1708757983.7239583,1
4.0,50.715,0.409878,34.87,1990180.0,1708757983.7822917,1
4.0,56.00333333333333,,,1989713.0,1708757983.840625,1
4.0,47.03,,,1989224.5,1708757983.8989584,1
4.0,39.17,,,1988779.0,1708757983.9572916,1
4.0,31.58,0.409878,34.87,1988864.0,1708757984.015625,1
4.0,25.685,,,1989398.5,1708757984.0739584,1
4.0,12.069999999999999,,,1990758.0,1708757984.1322916,1
4.0,-1.3125,,,1992290.5,1708757984.190625,1
4.0,-12.923333333333334,,,1994259.0,1708757984.2489583,1
4.0,-28.095,0.41244,34.89,1995842.0,1708757984.3072917,1
4.0,-42.5225,,,1995666.0,1708757984.365625,1
4.0,-62.080000000000005,,,1989951.5,1708757984.4239583,1
4.0,-69.5,,,1985885.0,1708757984.4822917,1
4.0,-38.89,0.411159,34.89,1983440.0,1708757984.540625,1
4.0,1.955,,,1982473.0,1708757984.5989583,1
4.0,21.5125,,,1982403.5,1708757984.6572917,1
4.0,27.906666666666666,,,1982193.0,1708757984.715625,1
4.0,25.337500000000002,0.41244,34.89,1982456.0,1708757984.7739584,1
4.0,18.814999999999998,,,1983371.0,1708757984.8322916,1
4.0,15.57,,,1985126.0,1708757984.890625,1
4.0,8.362499999999999,,,1987085.0,1708757984.9489584,1
4.0,-9.175,0.41244,34.89,1988395.0,1708757985.0072916,1
4.0,-33.21,,,1990498.5,1708757985.065625,1
4.0,-45.04,,,1992681.0,1708757985.1239583,1
4.0,-30.5,,,1990656.0,1708757985.1822917,1
4.0,1.5074999999999998,,,1985156.0,1708757985.240625,1
4.0,1.83,0.41244,34.89,1981592.5,1708757985.2989583,1
4.0,-17.28,,,1979319.0,1708757985.3572917,1
4.0,-13.257499999999999,,,1978537.0,1708757985.415625,1
4.0,18.425,,,1978555.0,1708757985.4739583,1
4.0,33.8775,0.41244,34.89,1978223.5,1708757985.5322917,1
4.0,32.93333333333333,,,1979340.0,1708757985.590625,1
4.0,25.34,,,1981766.0,1708757985.6489584,1
4.0,17.0425,,,1984124.0,1708757985.7072916,1
4.0,12.523333333333333,0.41244,34.89,1985773.0,1708757985.765625,1
4.0,10.917499999999999,,,1987980.0,1708757985.8239584,1
4.0,5.66,,,1990859.0,1708757985.8822916,1
4.0,-3.425,,,1995754.0,1708757985.940625,1
4.0,-16.5,,,1999518.0,1708757985.9989583,1
4.0,-30.765,0.409878,34.89,1997550.5,1708757986.0572917,1
4.0,-44.3275,,,1993866.0,1708757986.115625,1
4.0,-58.822500000000005,,,1991584.0,1708757986.1739583,1
4.0,-45.19,,,1990371.0,1708757986.2322917,1
4.0,-5.580000000000001,0.423967,34.89,1990202.0,1708757986.290625,1
4.0,23.945,,,1989812.0,1708757986.3489583,1
4.0,31.517500000000002,,,1989216.0,1708757986.4072917,1
4.0,28.793333333333333,,,1989247.0,1708757986.465625,1
4.0,26.262500000000003,0.418844,34.89,1990023.0,1708757986.5239584,1
4.0,23.67,,,1991326.0,1708757986.5822916,1
4.0,16.893333333333334,,,1993177.0,1708757986.640625,1
4.0,5.6674999999999995,,,1994792.5,1708757986.6989584,1
4.0,-13.65,0.420125,34.89,1996896.0,1708757986.7572916,1
4.0,-32.385,,,1999185.5,1708757986.815625,1
4.0,-46.25666666666667,,,1998133.0,1708757986.8739583,1
4.0,-67.445,,,1992442.5,1708757986.9322917,1
4.0,-49.792500000000004,,,1988169.0,1708757986.990625,1
4.0,-11.995000000000001,0.417563,34.89,1986086.0,1708757987.0489583,1
4.0,0.40666666666666657,,,1984370.0,1708757987.1072917,1
4.0,60.94,,,1983619.0,1708757987.165625,1
4.0,121.4525,,,1983168.5,1708757987.2239583,1
4.0,70.1425,0.417563,34.89,1982619.0,1708757987.2822917,1
4.0,21.886666666666667,,,1983358.0,1708757987.340625,1
4.0,16.2275,,,1984467.0,1708757987.3989584,1
4.0,9.4925,,,1986335.5,1708757987.4572916,1
4.0,-10.203333333333333,0.417563,34.89,1988409.0,1708757987.515625,1
4.0,-24.175,,,1990499.5,1708757987.5739584,1
4.0,-42.12,,,1992739.0,1708757987.6322916,1
4.0,-52.805,,,1994602.0,1708757987.690625,1
4.0,-65.40666666666665,,,1996320.0,1708757987.7489583,1
4.0,-74.29249999999999,0.417563,34.89,1994062.0,1708757987.8072917,1
4.0,-41.417500000000004,,,1988348.5,1708757987.865625,1
4.0,4.5825,,,1984822.0,1708757987.9239583,1
4.0,26.459999999999997,,,1982430.0,1708757987.9822917,1
4.0,37.685,0.416282,34.89,1981758.0,1708757988.040625,1
4.0,38.24,,,1980831.0,1708757988.0989583,1
4.0,32.9075,,,1980124.0,1708757988.1572917,1
4.0,29.64,,,1980018.5,1708757988.215625,1
4.0,24.612499999999997,0.418844,34.89,1980790.0,1708757988.2739584,1
4.0,12.7775,,,1982436.0,1708757988.3322916,1
4.0,2.9499999999999997,,,1983825.0,1708757988.390625,1
4.0,-10.105,,,1984989.0,1708757988.4489584,1
4.0,-27.2025,0.416282,34.89,1986774.5,1708757988.5072916,1
4.0,-43.2425,,,1988473.0,1708757988.565625,1
4.0,-60.13,,,1984807.0,1708757988.6239583,1
4.0,-52.855,,,1979462.0,1708757988.6822917,1
4.0,-12.805000000000001,,,1975939.5,1708757988.740625,1
4.0,12.942499999999999,0.417563,34.89,1973994.0,1708757988.7989583,1
4.0,19.150000000000002,,,1973335.5,1708757988.8572917,1
4.0,15.735000000000001,,,1972389.0,1708757988.915625,1
4.0,7.7575,,,1972215.0,1708757988.9739583,1
4.0,1.495,0.417563,34.89,1972295.0,1708757989.0322917,1
4.0,-7.963333333333334,,,1972899.0,1708757989.090625,1
4.0,-6.4425,,,1974498.5,1708757989.1489584,1
4.0,14.5475,,,1976153.0,1708757989.2072916,1
4.0,22.52,0.420125,34.87,1978155.0,1708757989.265625,1
4.0,7.852500000000001,,,1979270.0,1708757989.3239584,1
4.0,-15.76,,,1974313.5,1708757989.3822916,1
4.0,-23.509999999999998,,,1968135.0,1708757989.440625,1
4.0,4.483333333333333,,,1964235.5,1708757989.4989583,1
4.0,38.915,0.420125,34.87,1961538.0,1708757989.5572917,1
4.0,56.620000000000005,,,1960559.5,1708757989.615625,1
4.0,55.34,,,1959516.0,1708757989.6739583,1
4.0,46.60333333333333,,,1958906.5,1708757989.7322917,1
4.0,39.4825,0.420125,34.87,1959071.0,1708757989.790625,1
4.0,36.2675,,,1959655.0,1708757989.8489583,1
4.0,26.660000000000004,,,1960964.5,1708757989.9072917,1
4.0,12.183333333333332,,,1962643.0,1708757989.965625,1
4.0,-2.1075,0.421406,34.87,1964502.5,1708757990.0239584,1
4.0,-20.32,,,1966506.0,1708757990.0822916,1
4.0,-33.66,,,1968816.0,1708757990.140625,1
4.0,-47.68,,,1968569.0,1708757990.1989584,1
4.0,-68.9325,0.418844,34.87,1961631.5,1708757990.2572916,1
4.0,-53.7125,,,1955826.0,1708757990.315625,1
4.0,-14.676666666666668,,,1951910.5,1708757990.3739583,1
4.0,9.795,,,1949018.0,1708757990.4322917,1
4.0,22.945,,,1948352.0,1708757990.490625,1
4.0,26.1425,0.417563,34.87,1947032.0,1708757990.5489583,1
4.0,22.996666666666666,,,1945615.0,1708757990.6072917,1
4.0,21.1,,,1945699.5,1708757990.665625,1
4.0,17.470000000000002,,,1946171.0,1708757990.7239583,1
4.0,8.127500000000001,0.418844,34.87,1947643.0,1708757990.7822917,1
4.0,-3.003333333333334,,,1948959.0,1708757990.840625,1
4.0,-11.825,,,1950594.0,1708757990.8989584,1
4.0,-22.0925,,,1952321.0,1708757990.9572916,1
4.0,-30.073333333333334,0.417563,34.87,1953321.5,1708757991.015625,1
4.0,-40.7225,,,1948649.0,1708757991.0739584,1
4.0,-59.8225,,,1943354.0,1708757991.1322916,1
4.0,-45.9075,,,1938168.5,1708757991.190625,1
4.0,-5.273333333333333,,,1934448.0,1708757991.2489583,1
4.0,23.2875,0.417563,34.84,1932810.5,1708757991.3072917,1
4.0,37.075,,,1931455.0,1708757991.365625,1
4.0,40.78,,,1929801.5,1708757991.4239583,1
4.0,38.88666666666666,,,1929240.0,1708757991.4822917,1
4.0,35.735,0.418844,34.84,1929801.5,1708757991.540625,1
4.0,32.3625,,,1931030.0,1708757991.5989583,1
4.0,21.457500000000003,,,1932435.0,1708757991.6572917,1
4.0,9.556666666666667,,,1934169.0,1708757991.715625,1
4.0,-3.5324999999999998,0.418844,34.84,1935874.0,1708757991.7739584,1
4.0,-18.57,,,1933880.0,1708757991.8322916,1
4.0,-30.38333333333333,,,1928594.0,1708757991.890625,1
4.0,-50.5975,,,1921869.5,1708757991.9489584,1
4.0,-52.1425,0.418844,34.84,1917587.0,1708757992.0072916,1
4.0,-14.635,,,1914998.0,1708757992.065625,1
4.0,10.986666666666666,,,1913516.0,1708757992.1239583,1
4.0,22.447499999999998,,,1912423.0,1708757992.1822917,1
4.0,26.817500000000003,,,1911100.0,1708757992.240625,1
4.0,23.86,0.416282,34.84,1911594.5,1708757992.2989583,1
4.0,23.136666666666667,,,1912485.0,1708757992.3572917,1
4.0,22.475,,,1914052.5,1708757992.415625,1
4.0,13.9475,,,1915924.0,1708757992.4739583,1
4.0,-0.7549999999999997,0.415001,34.84,1917073.0,1708757992.5322917,1
4.0,-16.80666666666667,,,1919498.0,1708757992.590625,1
4.0,-35.4775,,,1921636.0,1708757992.6489584,1
4.0,-55.487500000000004,,,1916187.0,1708757992.7072916,1
4.0,-75.07666666666667,0.41372,34.84,1908378.0,1708757992.765625,1
4.0,-81.7875,,,1903362.0,1708757992.8239584,1
4.0,-43.4225,,,1899306.0,1708757992.8822916,1
4.0,-5.125,,,1897594.0,1708757992.940625,1
4.0,11.496666666666668,,,1896563.0,1708757992.9989583,1
4.0,19.375,0.41372,34.84,1895467.5,1708757993.0572917,1
4.0,5.719999999999999,,,1895243.0,1708757993.115625,1
4.0,9.025,,,1896032.0,1708757993.1739583,1
4.0,60.75,,,1897409.5,1708757993.2322917,1
4.0,83.51249999999999,0.41372,34.83,1899152.0,1708757993.290625,1
4.0,60.645,,,1901416.5,1708757993.3489583,1
4.0,38.1475,,,1903543.0,1708757993.4072917,1
4.0,27.826666666666664,,,1906124.0,1708757993.465625,1
4.0,5.8625,0.41372,34.83,1908370.0,1708757993.5239584,1
4.0,-14.184999999999999,,,1903159.5,1708757993.5822916,1
4.0,-31.266666666666666,,,1896471.0,1708757993.640625,1
4.0,-54.1625,,,1896204.0,1708757993.6989584,1
4.0,-40.912499999999994,0.41372,34.83,1896151.0,1708757993.7572916,1
4.0,0.3150000000000004,,,1896714.5,1708757993.815625,1
4.0,19.43,,,1896682.0,1708757993.8739583,1
4.0,31.0025,,,1895534.5,1708757993.9322917,1
4.0,35.62,,,1895050.0,1708757993.990625,1
4.0,36.9425,0.41372,34.83,1895286.0,1708757994.0489583,1
4.0,37.87,,,1896281.0,1708757994.1072917,1
4.0,35.8675,,,1897683.0,1708757994.165625,1
4.0,23.154999999999998,,,1899343.5,1708757994.2239583,1
4.0,10.5825,0.417563,34.87,1901377.0,1708757994.2822917,1
4.0,-6.906666666666666,,,1902843.0,1708757994.340625,1
4.0,-27.4775,,,1898200.0,1708757994.3989584,1
4.0,-44.065,,,1890885.0,1708757994.4572916,1
4.0,-61.95000000000001,0.415001,34.87,1885892.0,1708757994.515625,1
4.0,-64.3325,,,1883554.0,1708757994.5739584,1
4.0,-25.205,,,1881900.0,1708757994.6322916,1
4.0,10.9825,,,1881181.0,1708757994.690625,1
4.0,25.383333333333336,,,1880060.5,1708757994.7489583,1
4.0,30.9675,0.418844,34.87,1879926.0,1708757994.8072917,1
4.0,30.330000000000002,,,1881053.0,1708757994.865625,1
4.0,29.4625,,,1883041.0,1708757994.9239583,1
