ID,empatica_bvp,empatica_eda,empatica_temp,samsung_bvp,time,CL
2.0,38.16,,,2098746.0,1769235672.1989584,1
2.0,27.9325,0.331805,33.34,2101303.0,1769235672.2572916,1
2.0,9.95,,,2103381.0,1769235672.315625,1
2.0,-20.466666666666665,,,2097631.5,1769235672.3739583,1
2.0,-57.18,,,2091214.0,1769235672.4322917,1
2.0,-109.4325,,,2087633.0,1769235672.490625,1
2.0,-76.8975,0.386892,33.34,2086744.0,1769235672.5489583,1
2.0,32.47666666666667,,,2087742.5,1769235672.6072917,1
2.0,89.6775,,,2088184.0,1769235672.665625,1
2.0,101.5975,,,2089114.5,1769235672.7239583,1
2.0,77.745,0.351021,33.34,2091373.0,1769235672.7822917,1
2.0,61.93,,,2092807.0,1769235672.840625,1
2.0,59.942499999999995,,,2096228.5,1769235672.8989584,1
2.0,39.022499999999994,,,2098481.0,1769235672.9572916,1
2.0,-1.5166666666666668,0.340773,33.34,2093692.5,1769235673.015625,1
2.0,-48.9225,,,2088731.0,1769235673.0739584,1
2.0,-125.94,,,2086928.5,1769235673.1322916,1
2.0,-108.03,,,2087575.0,1769235673.190625,1
2.0,25.316666666666663,,,2089263.5,1769235673.2489583,1
2.0,68.905,0.343335,33.33,2090214.0,1769235673.3072917,1
2.0,-6.4575000000000005,,,2091646.0,1769235673.365625,1
2.0,-137.09,,,2094250.0,1769235673.4239583,1
2.0,-238.01333333333332,,,2096243.0,1769235673.4822917,1
2.0,-260.525,0.340773,33.33,2099530.5,1769235673.540625,1
2.0,-87.925,,,2099986.0,1769235673.5989583,1
2.0,54.592499999999994,,,2094997.5,1769235673.6572917,1
2.0,43.9,,,2091306.0,1769235673.715625,1
2.0,5.4399999999999995,0.342054,33.33,2090778.5,1769235673.7739584,1
2.0,86.9975,,,2092166.0,1769235673.8322916,1
2.0,144.00333333333333,,,2093910.5,1769235673.890625,1
2.0,132.97,,,2095258.0,1769235673.9489584,1
2.0,73.12,0.342054,33.33,2097498.5,1769235674.0072916,1
2.0,28.849999999999998,,,2100240.0,1769235674.065625,1
2.0,10.243333333333334,,,2104037.5,1769235674.1239583,1
2.0,-18.8525,,,2107345.0,1769235674.1822917,1
2.0,-51.8975,,,2106293.0,1769235674.240625,1
2.0,-109.43,0.340773,33.34,2101879.0,1769235674.2989583,1
2.0,-142.0633333333333,,,2099083.0,1769235674.3572917,1
2.0,-66.115,,,2099183.0,1769235674.415625,1
2.0,54.3,,,2100905.0,1769235674.4739583,1
2.0,106.9375,0.342054,33.34,2102794.0,1769235674.5322917,1
2.0,108.22333333333334,,,2104402.0,1769235674.590625,1
2.0,86.8325,,,2106971.5,1769235674.6489584,1
2.0,72.215,,,2109849.0,1769235674.7072916,1
2.0,62.56333333333333,0.352302,33.34,2113478.5,1769235674.765625,1
2.0,51.69,,,2117132.0,1769235674.8239584,1
2.0,18.2075,,,2117415.0,1769235674.8822916,1
2.0,-33.8075,,,2113168.0,1769235674.940625,1
2.0,-17.84,,,2110635.0,1769235674.9989583,1
2.0,100.6975,0.354865,33.34,2110641.0,1769235675.0572917,1
2.0,208.81000000000003,,,2112182.0,1769235675.115625,1
2.0,249.9475,,,2114120.5,1769235675.1739583,1
2.0,249.95333333333335,,,2115928.0,1769235675.2322917,1
2.0,224.495,0.356146,33.34,2117966.5,1769235675.290625,1
2.0,171.93499999999997,,,2120638.0,1769235675.3489583,1
2.0,99.53999999999999,,,2124097.5,1769235675.4072917,1
2.0,23.92,,,2127549.0,1769235675.465625,1
2.0,-21.985,0.216506,33.34,2127192.0,1769235675.5239584,1
2.0,-87.11749999999999,,,2123893.0,1769235675.5822916,1
2.0,-126.60666666666667,,,2121903.0,1769235675.640625,1
2.0,-19.1,,,2122588.0,1769235675.6989584,1
2.0,55.4375,0.340773,33.34,2124664.0,1769235675.7572916,1
2.0,3.5649999999999995,,,2126306.5,1769235675.815625,1
2.0,-56.22666666666667,,,2127490.0,1769235675.8739583,1
2.0,-117.82,,,2129688.0,1769235675.9322917,1
2.0,-163.015,,,2132540.0,1769235675.990625,1
2.0,-181.615,0.352302,33.34,2135307.5,1769235676.0489583,1
2.0,-174.21000000000004,,,2136565.0,1769235676.1072917,1
2.0,-104.78,,,2132435.0,1769235676.165625,1
2.0,-58.75749999999999,,,2130223.0,1769235676.2239583,1
2.0,-112.88,0.354865,33.37,2130265.0,1769235676.2822917,1
2.0,-142.37666666666667,,,2131413.0,1769235676.340625,1
2.0,-212.45,,,2133420.0,1769235676.3989584,1
2.0,-293.84749999999997,,,2134632.5,1769235676.4572916,1
2.0,-340.56666666666666,0.353584,33.37,2136322.0,1769235676.515625,1
2.0,-376.075,,,2138887.0,1769235676.5739584,1
2.0,-361.9525,,,2142095.0,1769235676.6322916,1
2.0,-267.32,,,2143799.0,1769235676.690625,1
2.0,-193.83,,,2140605.0,1769235676.7489583,1
2.0,-88.52000000000001,0.351021,33.37,2136861.5,1769235676.8072917,1
2.0,62.817499999999995,,,2134884.0,1769235676.865625,1
2.0,249.98000000000002,,,2134659.0,1769235676.9239583,1
2.0,341.81,,,2135955.5,1769235676.9822917,1
2.0,292.0375,0.353584,33.37,2136906.0,1769235677.040625,1
2.0,220.925,,,2137955.5,1769235677.0989583,1
2.0,170.57500000000002,,,2139559.0,1769235677.1572917,1
2.0,129.47,,,2141785.0,1769235677.215625,1
2.0,37.3,0.354865,33.37,2144561.0,1769235677.2739584,1
2.0,-95.9775,,,2144154.5,1769235677.3322916,1
2.0,-80.77333333333333,,,2139602.0,1769235677.390625,1
2.0,97.35,,,2136687.0,1769235677.4489584,1
2.0,239.8475,0.357427,33.37,2135457.0,1769235677.5072916,1
2.0,217.76250000000002,,,2135830.0,1769235677.565625,1
2.0,134.93333333333334,,,2136924.5,1769235677.6239583,1
2.0,97.42999999999999,,,2137464.0,1769235677.6822917,1
2.0,71.675,,,2138459.5,1769235677.740625,1
2.0,27.492499999999996,0.358708,33.37,2140134.0,1769235677.7989583,1
2.0,-34.42333333333333,,,2142309.5,1769235677.8572917,1
2.0,-139.025,,,2144140.0,1769235677.915625,1
2.0,-161.02,,,2140448.5,1769235677.9739583,1
2.0,14.395,0.358708,33.37,2135938.0,1769235678.0322917,1
2.0,104.21999999999998,,,2134014.5,1769235678.090625,1
2.0,78.9675,,,2134033.0,1769235678.1489584,1
2.0,-9.184999999999999,,,2134486.5,1769235678.2072916,1
2.0,-43.28333333333333,0.353584,33.37,2134118.0,1769235678.265625,1
2.0,-71.585,,,2134002.0,1769235678.3239584,1
2.0,-117.0325,,,2135297.0,1769235678.3822916,1
2.0,-163.49750000000003,,,2136608.5,1769235678.440625,1
2.0,-222.5,,,2135850.0,1769235678.4989583,1
2.0,-277.0825,0.352302,33.37,2130140.5,1769235678.5572917,1
2.0,-176.32000000000002,,,2125389.0,1769235678.615625,1
2.0,59.9525,,,2124229.5,1769235678.6739583,1
2.0,207.60666666666665,,,2124181.0,1769235678.7322917,1
2.0,208.21,0.352302,33.37,2123509.5,1769235678.790625,1
2.0,127.1425,,,2122748.0,1769235678.8489583,1
2.0,113.5375,,,2123148.0,1769235678.9072917,1
2.0,141.38666666666666,,,2124512.0,1769235678.965625,1
2.0,119.26249999999999,0.353584,33.37,2126246.0,1769235679.0239584,1
2.0,87.775,,,2123852.0,1769235679.0822916,1
2.0,-11.626666666666667,,,2117764.0,1769235679.140625,1
2.0,-187.4625,,,2113716.0,1769235679.1989584,1
2.0,-127.5725,0.351021,33.37,2110978.0,1769235679.2572916,1
2.0,43.2575,,,2111138.0,1769235679.315625,1
2.0,111.0,,,2110786.0,1769235679.3739583,1
2.0,90.6475,,,2110322.5,1769235679.4322917,1
2.0,-19.6825,,,2110585.0,1769235679.490625,1
2.0,-173.2275,0.347178,33.37,2112376.0,1769235679.5489583,1
2.0,-240.16333333333333,,,2114380.0,1769235679.6072917,1
2.0,-235.41500000000002,,,2112642.5,1769235679.665625,1
2.0,-226.7825,,,2107583.0,1769235679.7239583,1
2.0,-140.10500000000002,0.342054,33.37,2105252.5,1769235679.7822917,1
2.0,11.986666666666665,,,2104584.0,1769235679.840625,1
2.0,187.30499999999998,,,2103698.0,1769235679.8989584,1
2.0,302.1825,,,2100517.0,1769235679.9572916,1
2.0,282.9266666666667,0.345897,33.37,2095141.0,1769235680.015625,1
2.0,214.3225,,,2091214.0,1769235680.0739584,1
2.0,169.5675,,,2086564.5,1769235680.1322916,1
2.0,82.42500000000001,,,2082429.0,1769235680.190625,1
2.0,-58.21,,,2081104.0,1769235680.2489583,1
2.0,-183.1025,0.348459,33.39,2076050.0,1769235680.3072917,1
2.0,-235.7275,,,2071295.0,1769235680.365625,1
2.0,-95.30749999999999,,,2067155.0,1769235680.4239583,1
2.0,69.77,,,2067187.5,1769235680.4822917,1
2.0,116.8575,0.356146,33.39,2066410.0,1769235680.540625,1
2.0,72.8175,,,2065454.0,1769235680.5989583,1
2.0,-18.38,,,2064667.5,1769235680.6572917,1
2.0,-65.13,,,2064689.0,1769235680.715625,1
2.0,-92.6625,0.36127,33.39,2065700.5,1769235680.7739584,1
2.0,-109.20250000000001,,,2067643.0,1769235680.8322916,1
2.0,-146.56,,,2066246.5,1769235680.890625,1
2.0,-209.45000000000002,,,2063343.0,1769235680.9489584,1
2.0,-178.9025,0.357427,33.39,2062057.0,1769235681.0072916,1
2.0,12.5525,,,2061091.0,1769235681.065625,1
2.0,180.53333333333333,,,2060599.5,1769235681.1239583,1
2.0,222.94250000000002,,,2060306.0,1769235681.1822917,1
2.0,165.1875,,,2061985.0,1769235681.240625,1
2.0,104.885,0.368957,33.39,2067483.5,1769235681.2989583,1
2.0,58.70333333333334,,,2073859.0,1769235681.3572917,1
2.0,5.42,,,2080361.5,1769235681.415625,1
2.0,-40.9125,,,2083836.0,1769235681.4739583,1
2.0,-116.8675,0.36127,33.39,2083990.5,1769235681.5322917,1
2.0,-140.06333333333333,,,2086818.0,1769235681.590625,1
2.0,16.225,,,2093214.5,1769235681.6489584,1
2.0,208.90249999999997,,,2100627.0,1769235681.7072916,1
2.0,261.99,0.365113,33.39,2104222.5,1769235681.765625,1
2.0,230.34750000000003,,,2105101.0,1769235681.8239584,1
2.0,159.96750000000003,,,2106930.0,1769235681.8822916,1
2.0,112.355,,,2110159.0,1769235681.940625,1
2.0,69.59333333333332,,,2114590.0,1769235681.9989583,1
2.0,25.450000000000003,0.362551,33.39,2121598.0,1769235682.0572917,1
2.0,-8.505,,,2125362.0,1769235682.115625,1
2.0,-89.6625,,,2128096.0,1769235682.1739583,1
2.0,-153.33666666666667,,,2131594.0,1769235682.2322917,1
2.0,-67.9375,0.362551,33.37,2136822.0,1769235682.290625,1
2.0,46.7125,,,2142619.0,1769235682.3489583,1
2.0,62.4025,,,2147484.5,1769235682.4072917,1
2.0,45.31666666666666,,,2152131.0,1769235682.465625,1
2.0,92.2475,0.36127,33.37,2157266.0,1769235682.5239584,1
2.0,119.41,,,2162024.0,1769235682.5822916,1
2.0,65.28333333333335,,,2164221.0,1769235682.640625,1
2.0,-65.19,,,2165180.5,1769235682.6989584,1
2.0,-206.41750000000002,0.368957,33.37,2165587.0,1769235682.7572916,1
2.0,-250.3275,,,2167013.5,1769235682.815625,1
2.0,-198.19999999999996,,,2168653.0,1769235682.8739583,1
2.0,-32.324999999999996,,,2171422.0,1769235682.9322917,1
2.0,142.835,,,2174232.0,1769235682.990625,1
2.0,167.7425,0.359989,33.37,2177287.5,1769235683.0489583,1
2.0,135.10333333333332,,,2180689.0,1769235683.1072917,1
2.0,117.285,,,2184122.0,1769235683.165625,1
2.0,90.33500000000001,,,2187993.0,1769235683.2239583,1
2.0,54.53999999999999,0.327962,33.34,2189511.5,1769235683.2822917,1
2.0,-44.04,,,2190366.0,1769235683.340625,1
2.0,-79.75750000000001,,,2192031.0,1769235683.3989584,1
2.0,-4.552499999999998,,,2194119.0,1769235683.4572916,1
2.0,21.536666666666665,0.3728,33.34,2196903.0,1769235683.515625,1
2.0,-54.7625,,,2198589.5,1769235683.5739584,1
2.0,-145.8575,,,2199648.0,1769235683.6322916,1
2.0,-191.185,,,2200059.5,1769235683.690625,1
2.0,-124.2666666666667,,,2200898.0,1769235683.7489583,1
2.0,-80.465,0.3728,33.34,2200581.0,1769235683.8072917,1
2.0,-307.1625,,,2197198.0,1769235683.865625,1
2.0,-497.3175,,,2186271.0,1769235683.9239583,1
2.0,-411.0366666666667,,,2175773.0,1769235683.9822917,1
2.0,-236.805,0.381768,33.34,2171788.0,1769235684.040625,1
2.0,-74.6975,,,2167915.5,1769235684.0989583,1
2.0,102.0075,,,2167173.0,1769235684.1572917,1
2.0,244.5433333333333,,,2171574.5,1769235684.215625,1
2.0,257.13500000000005,0.379206,33.34,2178165.0,1769235684.2739584,1
2.0,173.225,,,2183531.0,1769235684.3322916,1
2.0,70.05333333333333,,,2186413.0,1769235684.390625,1
2.0,-41.0925,,,2187963.5,1769235684.4489584,1
2.0,-51.267500000000005,0.371519,33.34,2191721.0,1769235684.5072916,1
2.0,114.93,,,2194467.5,1769235684.565625,1
2.0,247.68666666666664,,,2197916.0,1769235684.6239583,1
2.0,223.42000000000002,,,2202247.0,1769235684.6822917,1
2.0,123.18750000000001,,,2207301.0,1769235684.740625,1
2.0,55.317499999999995,0.367676,33.34,2209838.0,1769235684.7989583,1
2.0,9.733333333333334,,,2211459.0,1769235684.8572917,1
2.0,-25.855,,,2211112.0,1769235684.915625,1
2.0,-92.1375,,,2212343.5,1769235684.9739583,1
2.0,-146.3475,0.363832,33.34,2215659.0,1769235685.0322917,1
2.0,-46.879999999999995,,,2216224.0,1769235685.090625,1
2.0,100.67750000000001,,,2215561.0,1769235685.1489584,1
2.0,165.80499999999998,,,2217768.5,1769235685.2072916,1
2.0,128.69333333333336,0.357427,33.37,2220760.0,1769235685.265625,1
2.0,65.88000000000001,,,2224865.5,1769235685.3239584,1
2.0,7.0125,,,2229618.0,1769235685.3822916,1
2.0,-55.392500000000005,,,2233085.0,1769235685.440625,1
2.0,-116.89333333333333,,,2238596.5,1769235685.4989583,1
2.0,-216.45,0.351021,33.37,2242927.0,1769235685.5572917,1
2.0,-278.3375,,,2245055.0,1769235685.615625,1
2.0,-169.5775,,,2243321.0,1769235685.6739583,1
2.0,0.14333333333333087,,,2241040.0,1769235685.7322917,1
2.0,175.7225,0.353584,33.37,2240928.0,1769235685.790625,1
2.0,249.55750000000003,,,2242816.0,1769235685.8489583,1
2.0,227.0275,,,2245958.0,1769235685.9072917,1
2.0,191.57666666666668,,,2248272.5,1769235685.965625,1
2.0,160.53,0.351021,33.37,2251754.0,1769235686.0239584,1
2.0,114.09250000000002,,,2256014.0,1769235686.0822916,1
2.0,-14.526666666666669,,,2259915.0,1769235686.140625,1
2.0,-165.6975,,,2261028.0,1769235686.1989584,1
2.0,-125.24499999999999,0.34974,33.37,2259323.0,1769235686.2572916,1
2.0,60.464999999999996,,,2257763.0,1769235686.315625,1
2.0,117.94,,,2257311.5,1769235686.3739583,1
2.0,13.397499999999999,,,2257749.0,1769235686.4322917,1
2.0,-86.73500000000001,,,2259688.0,1769235686.490625,1
2.0,-36.205,0.345897,33.37,2261892.0,1769235686.5489583,1
2.0,-15.173333333333332,,,2264643.0,1769235686.6072917,1
2.0,-61.112500000000004,,,2268140.0,1769235686.665625,1
2.0,-131.07750000000001,,,2270291.0,1769235686.7239583,1
2.0,-85.90249999999999,0.34974,33.37,2268641.0,1769235686.7822917,1
2.0,88.70666666666666,,,2266691.0,1769235686.840625,1
2.0,253.0775,,,2265363.5,1769235686.8989584,1
2.0,320.5075,,,2264926.0,1769235686.9572916,1
2.0,246.77666666666667,0.347178,33.37,2266493.5,1769235687.015625,1
2.0,89.6575,,,2267630.0,1769235687.0739584,1
2.0,-50.477500000000006,,,2269174.5,1769235687.1322916,1
2.0,-97.2925,,,2271248.0,1769235687.190625,1
2.0,-224.77666666666667,,,2274297.5,1769235687.2489583,1
2.0,-450.9225,0.34974,33.34,2275247.0,1769235687.3072917,1
2.0,-497.51,,,2271114.0,1769235687.365625,1
2.0,-308.6125,,,2267581.0,1769235687.4239583,1
2.0,-122.80333333333333,,,2266185.5,1769235687.4822917,1
2.0,70.3175,0.352302,33.34,2265681.0,1769235687.540625,1
2.0,159.6525,,,2266509.0,1769235687.5989583,1
2.0,122.4075,,,2266918.0,1769235687.6572917,1
2.0,84.25666666666666,,,2267163.0,1769235687.715625,1
2.0,44.6725,0.351021,33.34,2267780.5,1769235687.7739584,1
2.0,-37.705,,,2268986.0,1769235687.8322916,1
2.0,-135.12333333333333,,,2270140.0,1769235687.890625,1
2.0,-122.61249999999998,,,2267725.0,1769235687.9489584,1
2.0,29.3375,0.345897,33.34,2267016.0,1769235688.0072916,1
2.0,187.6525,,,2267699.0,1769235688.065625,1
2.0,200.74333333333334,,,2269924.5,1769235688.1239583,1
2.0,134.7875,,,2270536.0,1769235688.1822917,1
2.0,68.7325,,,2270211.0,1769235688.240625,1
2.0,15.870000000000001,0.347178,33.37,2269426.5,1769235688.2989583,1
2.0,-21.796666666666667,,,2270305.0,1769235688.3572917,1
2.0,-101.43499999999999,,,2272578.0,1769235688.415625,1
2.0,-174.2275,,,2275870.0,1769235688.4739583,1
2.0,-62.475,0.345897,33.37,2272971.0,1769235688.5322917,1
2.0,94.59999999999998,,,2268206.0,1769235688.590625,1
2.0,154.01500000000001,,,2265770.5,1769235688.6489584,1
2.0,113.00249999999998,,,2265799.0,1769235688.7072916,1
2.0,51.916666666666664,0.308745,33.37,2267924.5,1769235688.765625,1
2.0,1.6050000000000004,,,2270014.0,1769235688.8239584,1
2.0,-51.905,,,2273953.0,1769235688.8822916,1
2.0,-120.405,,,2279058.0,1769235688.940625,1
2.0,-208.5233333333333,,,2281301.0,1769235688.9989583,1
2.0,-222.1,0.347178,33.37,2279467.0,1769235689.0572917,1
2.0,-81.2475,,,2269938.0,1769235689.115625,1
2.0,87.9425,,,2259510.0,1769235689.1739583,1
2.0,123.04666666666668,,,2253068.0,1769235689.2322917,1
2.0,76.9125,0.343335,33.37,2253107.0,1769235689.290625,1
2.0,66.2175,,,2254488.0,1769235689.3489583,1
2.0,85.0275,,,2255300.0,1769235689.4072917,1
2.0,107.07666666666667,,,2256734.0,1769235689.465625,1
2.0,63.197500000000005,0.340773,33.37,2259604.0,1769235689.5239584,1
2.0,-21.545,,,2262567.0,1769235689.5822916,1
2.0,21.99,,,2260440.0,1769235689.640625,1
2.0,130.665,,,2252130.0,1769235689.6989584,1
2.0,175.385,0.342054,33.37,2245041.0,1769235689.7572916,1
2.0,148.67249999999999,,,2240786.0,1769235689.815625,1
2.0,133.21666666666667,,,2239192.0,1769235689.8739583,1
2.0,101.78750000000001,,,2239440.5,1769235689.9322917,1
2.0,43.2675,,,2239814.0,1769235689.990625,1
2.0,-6.720000000000001,0.340773,33.37,2239642.5,1769235690.0489583,1
2.0,-109.25333333333333,,,2239843.0,1769235690.1072917,1
2.0,-182.4575,,,2239191.0,1769235690.165625,1
2.0,-56.212500000000006,,,,1769235690.2239583,1
2.0,103.8225,0.343335,33.34,2232632.0,1769235690.2822917,1
2.0,135.43666666666667,,,2222914.5,1769235690.340625,1
2.0,81.595,,,2215304.0,1769235690.3989584,1
2.0,30.18,,,2210976.5,1769235690.4572916,1
2.0,-6.09,0.343335,33.34,2209663.0,1769235690.515625,1
2.0,-32.115,,,2208384.0,1769235690.5739584,1
2.0,-87.7025,,,2207359.5,1769235690.6322916,1
2.0,-179.59000000000003,,,2207284.0,1769235690.690625,1
2.0,-136.28,,,2208103.0,1769235690.7489583,1
2.0,26.8175,0.340773,33.34,2207482.0,1769235690.8072917,1
2.0,131.7725,,,2198606.0,1769235690.865625,1
2.0,101.92500000000001,,,2189814.0,1769235690.9239583,1
2.0,33.94,,,2184186.0,1769235690.9822917,1
2.0,-23.775,0.353584,33.34,2181596.0,1769235691.040625,1
2.0,-70.5375,,,2180389.0,1769235691.0989583,1
2.0,-117.7575,,,2179371.0,1769235691.1572917,1
2.0,-200.11333333333334,,,2178899.0,1769235691.215625,1
2.0,-192.365,0.347178,33.34,2179512.0,1769235691.2739584,1
2.0,-5.530000000000001,,,2181410.0,1769235691.3322916,1
2.0,131.71,,,2176967.0,1769235691.390625,1
2.0,154.645,,,2168308.0,1769235691.4489584,1
2.0,101.4575,0.343335,33.34,2160590.0,1769235691.5072916,1
2.0,42.394999999999996,,,2154535.0,1769235691.565625,1
2.0,-1.5633333333333332,,,2151639.0,1769235691.6239583,1
2.0,-42.6625,,,2151500.0,1769235691.6822917,1
2.0,-119.3275,,,2152786.5,1769235691.740625,1
2.0,-180.885,0.345897,33.34,2156018.0,1769235691.7989583,1
2.0,-71.66,,,2159345.0,1769235691.8572917,1
2.0,110.18,,,2161589.0,1769235691.915625,1
2.0,203.9125,,,2151437.0,1769235691.9739583,1
2.0,197.56,0.345897,33.34,2132018.5,1769235692.0322917,1
2.0,215.87,,,2114720.0,1769235692.090625,1
2.0,264.495,,,2105847.5,1769235692.1489584,1
2.0,272.79,,,2105189.0,1769235692.2072916,1
2.0,208.84,0.340773,33.33,2113918.5,1769235692.265625,1
2.0,121.62249999999999,,,2115101.0,1769235692.3239584,1
2.0,35.99,,,2117161.0,1769235692.3822916,1
2.0,-91.60750000000002,,,2120662.0,1769235692.440625,1
2.0,-172.7733333333333,,,2121019.0,1769235692.4989583,1
2.0,-123.85000000000001,0.340773,33.33,2116252.5,1769235692.5572917,1
2.0,-196.98000000000002,,,2112609.0,1769235692.615625,1
2.0,-437.7475,,,2113299.5,1769235692.6739583,1
2.0,-577.54,,,2117484.0,1769235692.7322917,1
2.0,-455.7325,0.342054,33.33,2122095.5,1769235692.790625,1
2.0,-330.96999999999997,,,2126082.0,1769235692.8489583,1
2.0,-276.75,,,2130941.0,1769235692.9072917,1
2.0,-173.79333333333332,,,2135923.0,1769235692.965625,1
2.0,-36.055,0.342054,33.33,2138811.0,1769235693.0239584,1
2.0,131.93,,,2135387.0,1769235693.0822916,1
2.0,256.96,,,2129685.5,1769235693.140625,1
2.0,263.6,,,2125700.0,1769235693.1989584,1
2.0,191.15,0.343335,33.34,2125745.0,1769235693.2572916,1
2.0,122.28500000000001,,,2127154.0,1769235693.315625,1
2.0,64.26,,,2127865.0,1769235693.3739583,1
2.0,-32.345,,,2129242.5,1769235693.4322917,1
2.0,-113.135,,,2131821.0,1769235693.490625,1
2.0,-15.330000000000002,0.339491,33.34,2135369.5,1769235693.5489583,1
2.0,113.26666666666667,,,2134663.0,1769235693.6072917,1
2.0,166.1675,,,2128983.5,1769235693.665625,1
2.0,132.7825,,,2125263.0,1769235693.7239583,1
2.0,79.76750000000001,0.231879,33.34,2124775.5,1769235693.7822917,1
2.0,42.23333333333333,,,2126566.0,1769235693.840625,1
2.0,14.0375,,,2128151.0,1769235693.8989584,1
2.0,-20.85,,,2129929.0,1769235693.9572916,1
2.0,-92.37,0.335648,33.34,2133048.0,1769235694.015625,1
2.0,-100.6125,,,2136516.5,1769235694.0739584,1
2.0,41.457499999999996,,,2139276.0,1769235694.1322916,1
2.0,169.0525,,,2134684.0,1769235694.190625,1
2.0,200.49666666666667,,,2129434.0,1769235694.2489583,1
2.0,169.72500000000002,0.33821,33.33,2126785.0,1769235694.3072917,1
2.0,167.465,,,2126805.0,1769235694.365625,1
2.0,192.39750000000004,,,2128162.5,1769235694.4239583,1
2.0,134.11333333333332,,,2127875.0,1769235694.4822917,1
2.0,30.63,0.339491,33.33,2126326.5,1769235694.540625,1
2.0,-101.0275,,,2125462.0,1769235694.5989583,1
2.0,-309.9575,,,2125730.0,1769235694.6572917,1
2.0,-453.25,,,2123338.0,1769235694.715625,1
2.0,-338.12,0.336929,33.33,2115696.0,1769235694.7739584,1
2.0,-147.51,,,2108682.0,1769235694.8322916,1
2.0,-79.17999999999999,,,2104021.0,1769235694.890625,1
2.0,-37.097500000000004,,,2103653.0,1769235694.9489584,1
2.0,19.7975,0.334367,33.33,2104251.0,1769235695.0072916,1
2.0,11.367499999999998,,,2105349.0,1769235695.065625,1
2.0,-38.096666666666664,,,2106949.0,1769235695.1239583,1
2.0,-92.74249999999999,,,2108618.0,1769235695.1822917,1
2.0,-21.305,,,2110767.5,1769235695.240625,1
2.0,136.0475,0.334367,33.31,2107992.0,1769235695.2989583,1
2.0,217.89666666666668,,,2101129.5,1769235695.3572917,1
2.0,216.3125,,,2096351.0,1769235695.415625,1
2.0,131.08499999999998,,,2095046.5,1769235695.4739583,1
2.0,47.400000000000006,0.335648,33.31,2096121.0,1769235695.5322917,1
2.0,3.2433333333333327,,,2097475.0,1769235695.590625,1
2.0,-25.185000000000002,,,2099051.0,1769235695.6489584,1
2.0,-102.925,,,2101844.5,1769235695.7072916,1
2.0,-173.25333333333333,0.340773,33.31,2105400.0,1769235695.765625,1
2.0,-102.53750000000001,,,2106036.5,1769235695.8239584,1
2.0,59.415000000000006,,,2100961.0,1769235695.8822916,1
2.0,146.685,,,2097188.0,1769235695.940625,1
2.0,138.21333333333334,,,2093504.5,1769235695.9989583,1
2.0,93.345,0.343335,33.31,2092388.0,1769235696.0572917,1
2.0,59.255,,,2093803.5,1769235696.115625,1
2.0,23.259999999999998,,,2095289.0,1769235696.1739583,1
2.0,-8.573333333333332,,,2097017.5,1769235696.2322917,1
2.0,-78.35249999999999,0.32668,33.33,2099286.0,1769235696.290625,1
2.0,-131.3525,,,2102277.0,1769235696.3489583,1
2.0,-11.957500000000005,,,2101104.0,1769235696.4072917,1
2.0,134.37666666666667,,,2095093.5,1769235696.465625,1
2.0,192.03750000000002,0.333086,33.33,2089587.0,1769235696.5239584,1
2.0,190.235,,,2087418.0,1769235696.5822916,1
2.0,186.87333333333336,,,2087151.5,1769235696.640625,1
2.0,192.61,,,2087793.0,1769235696.6989584,1
2.0,144.3175,0.336929,33.33,2088800.0,1769235696.7572916,1
2.0,33.357499999999995,,,2090192.0,1769235696.815625,1
2.0,-51.580000000000005,,,2093253.5,1769235696.8739583,1
2.0,-152.1975,,,2097326.0,1769235696.9322917,1
2.0,-362.33000000000004,,,2096169.5,1769235696.990625,1
2.0,-334.4325,0.334367,33.33,2092393.0,1769235697.0489583,1
2.0,-133.87333333333333,,,2090604.0,1769235697.1072917,1
2.0,-43.86,,,2091119.0,1769235697.165625,1
2.0,-44.737500000000004,,,2093126.0,1769235697.2239583,1
2.0,-12.225000000000001,0.335648,33.33,2094248.0,1769235697.2822917,1
2.0,9.686666666666667,,,2095115.0,1769235697.340625,1
2.0,-27.41,,,2097333.0,1769235697.3989584,1
2.0,-127.28,,,2100459.0,1769235697.4572916,1
2.0,-164.11333333333332,0.334367,33.33,2102525.0,1769235697.515625,1
2.0,-29.2725,,,2099503.0,1769235697.5739584,1
2.0,142.1675,,,2093644.5,1769235697.6322916,1
2.0,196.66,,,2089007.0,1769235697.690625,1
2.0,164.03666666666666,,,2088159.5,1769235697.7489583,1
2.0,114.33250000000001,0.331805,33.33,2089260.0,1769235697.8072917,1
2.0,65.99,,,2090705.5,1769235697.865625,1
2.0,14.93,,,2092476.0,1769235697.9239583,1
2.0,-35.71666666666667,,,2094066.0,1769235697.9822917,1
2.0,-125.82,0.331805,33.33,2096633.0,1769235698.040625,1
2.0,-166.31,,,2099423.0,1769235698.0989583,1
2.0,-33.2875,,,2095848.5,1769235698.1572917,1
2.0,83.08999999999999,,,2091106.0,1769235698.215625,1
2.0,115.785,0.33821,33.33,2088312.0,1769235698.2739584,1
2.0,76.85249999999999,,,2088148.0,1769235698.3322916,1
2.0,32.04666666666666,,,2089930.0,1769235698.390625,1
2.0,-7.465,,,2091672.0,1769235698.4489584,1
2.0,-34.445,0.344616,33.33,2093766.5,1769235698.5072916,1
2.0,-61.7825,,,2096350.0,1769235698.565625,1
2.0,-127.8,,,2099627.5,1769235698.6239583,1
2.0,-126.57000000000001,,,2101048.0,1769235698.6822917,1
2.0,3.1650000000000027,,,2097608.0,1769235698.740625,1
2.0,97.20250000000001,0.348459,33.33,2092849.5,1769235698.7989583,1
2.0,111.5,,,2089640.0,1769235698.8572917,1
2.0,73.86749999999999,,,2089884.0,1769235698.915625,1
2.0,39.665,,,2091369.0,1769235698.9739583,1
2.0,9.9575,0.347178,33.33,2092105.0,1769235699.0322917,1
2.0,-15.563333333333333,,,2094152.0,1769235699.090625,1
2.0,-49.805,,,2097375.0,1769235699.1489584,1
2.0,-110.22749999999999,,,2102201.0,1769235699.2072916,1
2.0,-79.08333333333333,0.351021,33.31,2104206.5,1769235699.265625,1
2.0,100.95750000000001,,,2101182.0,1769235699.3239584,1
2.0,285.29999999999995,,,2099615.0,1769235699.3822916,1
2.0,307.995,,,2099253.5,1769235699.440625,1
2.0,200.8033333333333,,,2101110.0,1769235699.4989583,1
2.0,82.9075,0.34974,33.31,2103760.5,1769235699.5572917,1
2.0,-108.86500000000001,,,2105721.0,1769235699.615625,1
2.0,-370.72749999999996,,,2108309.0,1769235699.6739583,1
2.0,-504.1133333333333,,,2112048.0,1769235699.7322917,1
2.0,-444.8825,0.34974,33.31,2115535.5,1769235699.790625,1
2.0,-293.63,,,2116002.0,1769235699.8489583,1
2.0,-126.26749999999998,,,2110299.0,1769235699.9072917,1
2.0,38.17333333333333,,,2105077.0,1769235699.965625,1
2.0,205.53000000000003,0.345897,33.31,2102720.0,1769235700.0239584,1
2.0,239.90749999999997,,,2101592.0,1769235700.0822916,1
2.0,201.66333333333333,,,2102085.0,1769235700.140625,1
2.0,156.0575,,,2102373.0,1769235700.1989584,1
2.0,101.9325,0.342054,33.29,2102911.0,1769235700.2572916,1
2.0,16.724999999999998,,,2104333.0,1769235700.315625,1
2.0,-66.17666666666666,,,2106225.0,1769235700.3739583,1
2.0,-15.8725,,,2105752.0,1769235700.4322917,1
2.0,109.075,,,2100226.0,1769235700.490625,1
2.0,164.07,0.340773,33.29,2094718.0,1769235700.5489583,1
2.0,137.48666666666665,,,2090963.0,1769235700.6072917,1
2.0,73.2575,,,2090738.5,1769235700.665625,1
2.0,14.535,,,2091037.0,1769235700.7239583,1
2.0,-30.4025,0.342054,33.29,2091147.0,1769235700.7822917,1
2.0,-56.35,,,2091664.0,1769235700.840625,1
2.0,-118.9925,,,2092336.0,1769235700.8989584,1
2.0,-184.43,,,2093370.5,1769235700.9572916,1
2.0,-122.33,0.343335,33.29,2091950.0,1769235701.015625,1
2.0,16.485,,,2085488.5,1769235701.0739584,1
2.0,93.2325,,,2080818.0,1769235701.1322916,1
2.0,54.1825,,,2079397.0,1769235701.190625,1
2.0,-2.356666666666667,,,2080998.0,1769235701.2489583,1
2.0,-42.682500000000005,0.344616,33.29,2083081.0,1769235701.3072917,1
2.0,-84.7975,,,2085075.0,1769235701.365625,1
2.0,-137.13,,,2087211.0,1769235701.4239583,1
2.0,-202.76999999999998,,,2090960.5,1769235701.4822917,1
2.0,-169.405,0.343335,33.29,2094384.0,1769235701.540625,1
2.0,18.667499999999997,,,2094904.5,1769235701.5989583,1
2.0,156.23000000000002,,,2089642.0,1769235701.6572917,1
2.0,173.41666666666666,,,2084861.0,1769235701.715625,1
2.0,158.9225,0.343335,33.29,2082180.0,1769235701.7739584,1
2.0,156.2175,,,2082765.0,1769235701.8322916,1
2.0,155.77,,,2084551.0,1769235701.890625,1
2.0,114.2425,,,2086586.0,1769235701.9489584,1
2.0,-2.332499999999998,0.340773,33.29,2089674.0,1769235702.0072916,1
2.0,-19.015,,,2092402.0,1769235702.065625,1
2.0,104.03666666666668,,,2095889.0,1769235702.1239583,1
2.0,167.1325,,,2095707.0,1769235702.1822917,1
2.0,37.919999999999995,,,2088912.5,1769235702.240625,1
2.0,-199.615,0.345897,33.27,2082612.5,1769235702.2989583,1
2.0,-243.90666666666667,,,2081112.0,1769235702.3572917,1
2.0,-183.6625,,,2081372.0,1769235702.415625,1
2.0,-171.63,,,2081352.0,1769235702.4739583,1
2.0,-201.62,0.347178,33.27,2082005.0,1769235702.5322917,1
2.0,-195.47666666666666,,,2083374.0,1769235702.590625,1
2.0,-58.7275,,,2085909.0,1769235702.6489584,1
2.0,124.14499999999998,,,2086637.5,1769235702.7072916,1
2.0,197.34666666666666,0.344616,33.27,2081520.0,1769235702.765625,1
2.0,167.18,,,2075868.0,1769235702.8239584,1
2.0,102.9375,,,2072271.0,1769235702.8822916,1
2.0,47.06999999999999,,,2072681.0,1769235702.940625,1
2.0,2.14,,,2074139.0,1769235702.9989583,1
2.0,-53.3275,0.340773,33.27,2075580.0,1769235703.0572917,1
2.0,-146.06,,,2077451.0,1769235703.115625,1
2.0,-103.6375,,,2079287.0,1769235703.1739583,1
2.0,30.813333333333333,,,2082671.0,1769235703.2322917,1
2.0,103.59,0.342054,33.27,2084847.0,1769235703.290625,1
2.0,97.155,,,2080780.5,1769235703.3489583,1
2.0,48.575,,,2076660.0,1769235703.4072917,1
2.0,8.4,,,2075157.0,1769235703.465625,1
2.0,-23.7575,0.340773,33.27,2075777.0,1769235703.5239584,1
2.0,-58.5525,,,2077801.0,1769235703.5822916,1
2.0,-126.25999999999999,,,2079351.0,1769235703.640625,1
2.0,-138.95,,,2081551.0,1769235703.6989584,1
2.0,-19.814999999999998,0.33821,33.27,2085625.0,1769235703.7572916,1
2.0,78.7175,,,2088861.0,1769235703.815625,1
2.0,77.96333333333332,,,2089899.0,1769235703.8739583,1
2.0,27.47,,,2088499.0,1769235703.9322917,1
2.0,-18.79,,,2088692.0,1769235703.990625,1
2.0,-50.46000000000001,0.340773,33.27,2090579.0,1769235704.0489583,1
2.0,-70.77333333333333,,,2094127.5,1769235704.1072917,1
2.0,-119.995,,,2096863.0,1769235704.165625,1
2.0,-136.98250000000002,,,2099072.5,1769235704.2239583,1
2.0,9.055000000000001,0.342054,33.29,2102456.0,1769235704.2822917,1
2.0,158.52666666666667,,,2105987.5,1769235704.340625,1
2.0,257.27750000000003,,,2106694.0,1769235704.3989584,1
2.0,314.2325,,,2105825.0,1769235704.4572916,1
2.0,322.1933333333333,0.347178,33.29,2106788.0,1769235704.515625,1
2.0,259.37,,,2110189.0,1769235704.5739584,1
2.0,180.1325,,,2115996.5,1769235704.6322916,1
2.0,57.160000000000004,,,2121422.0,1769235704.690625,1
2.0,-111.09666666666668,,,2125647.5,1769235704.7489583,1
2.0,-111.32749999999999,0.348459,33.29,2129930.0,1769235704.8072917,1
2.0,69.83250000000001,,,2133387.0,1769235704.865625,1
2.0,106.685,,,2133976.0,1769235704.9239583,1
2.0,33.169999999999995,,,2129031.5,1769235704.9822917,1
2.0,-14.725,0.344616,33.29,2124583.0,1769235705.040625,1
2.0,-151.4575,,,2122673.5,1769235705.0989583,1
2.0,-400.6425,,,2123012.0,1769235705.1572917,1
2.0,-470.8233333333333,,,2123660.0,1769235705.215625,1
2.0,-399.93999999999994,0.344616,33.27,2124721.5,1769235705.2739584,1
2.0,-364.31,,,2126635.0,1769235705.3322916,1
2.0,-255.7733333333333,,,2128730.5,1769235705.390625,1
2.0,-95.41499999999999,,,2130612.0,1769235705.4489584,1
2.0,112.26000000000002,0.345897,33.27,2126323.5,1769235705.5072916,1
2.0,233.76749999999998,,,2120883.0,1769235705.565625,1
2.0,217.71666666666667,,,2118196.0,1769235705.6239583,1
2.0,165.94500000000002,,,2118115.0,1769235705.6822917,1
2.0,119.015,,,2119650.5,1769235705.740625,1
2.0,75.7475,0.343335,33.27,2120575.0,1769235705.7989583,1
2.0,-3.646666666666666,,,2121627.0,1769235705.8572917,1
2.0,-81.56,,,2124169.5,1769235705.915625,1
2.0,-67.07,,,2127133.0,1769235705.9739583,1
2.0,48.74,0.340773,33.27,2125752.5,1769235706.0322917,1
2.0,111.29333333333334,,,2120773.0,1769235706.090625,1
2.0,104.89250000000001,,,2117911.0,1769235706.1489584,1
2.0,59.417500000000004,,,2117445.0,1769235706.2072916,1
2.0,25.59,0.339491,33.27,2118908.0,1769235706.265625,1
2.0,-3.2375,,,2120283.0,1769235706.3239584,1
2.0,-21.525,,,2121795.0,1769235706.3822916,1
2.0,-81.56,,,2124139.0,1769235706.440625,1
2.0,-132.92666666666665,,,2125949.0,1769235706.4989583,1
2.0,-68.0775,0.334367,33.27,2126655.0,1769235706.5572917,1
2.0,56.9975,,,2122218.0,1769235706.615625,1
2.0,103.6375,,,2118097.0,1769235706.6739583,1
2.0,71.03,,,2115670.0,1769235706.7322917,1
2.0,23.4675,0.336929,33.27,2116468.0,1769235706.790625,1
2.0,-11.66,,,2118504.0,1769235706.8489583,1
2.0,-40.335,,,2120865.5,1769235706.9072917,1
2.0,-59.663333333333334,,,2124072.0,1769235706.965625,1
2.0,-113.9375,0.336929,33.27,2128256.0,1769235707.0239584,1
2.0,-99.4875,,,2130467.0,1769235707.0822916,1
2.0,39.303333333333335,,,2124456.0,1769235707.140625,1
2.0,172.5725,,,2116087.0,1769235707.1989584,1
2.0,263.51,0.333086,33.25,2111264.0,1769235707.2572916,1
2.0,262.4375,,,2108146.0,1769235707.315625,1
2.0,228.52666666666664,,,2108143.0,1769235707.3739583,1
2.0,191.26500000000001,,,2109441.0,1769235707.4322917,1
2.0,124.615,,,2110940.0,1769235707.490625,1
2.0,13.227499999999997,0.344616,33.25,2112750.0,1769235707.5489583,1
2.0,-166.51333333333335,,,2114830.0,1769235707.6072917,1
2.0,-283.7425,,,2115756.0,1769235707.665625,1
2.0,-159.95999999999998,,,2110859.0,1769235707.7239583,1
2.0,12.8725,0.348459,33.25,2104484.0,1769235707.7822917,1
2.0,80.63333333333333,,,2099835.0,1769235707.840625,1
2.0,20.7875,,,2098759.0,1769235707.8989584,1
2.0,-46.495000000000005,,,2099760.5,1769235707.9572916,1
2.0,-61.42666666666667,0.348459,33.25,2101566.0,1769235708.015625,1
2.0,-157.73499999999999,,,2103817.0,1769235708.0739584,1
2.0,-281.62,,,2106590.0,1769235708.1322916,1
2.0,-325.09000000000003,,,2109991.0,1769235708.190625,1
2.0,-255.15,,,2113431.0,1769235708.2489583,1
2.0,-94.8625,0.345897,33.27,2110821.5,1769235708.3072917,1
2.0,85.6525,,,2106647.0,1769235708.365625,1
2.0,153.23,,,2104745.0,1769235708.4239583,1
2.0,125.05666666666666,,,2104936.0,1769235708.4822917,1
2.0,95.2575,0.343335,33.27,2106396.0,1769235708.540625,1
2.0,66.6525,,,2108255.0,1769235708.5989583,1
2.0,39.0975,,,2110389.0,1769235708.6572917,1
2.0,1.2333333333333332,,,2113097.5,1769235708.715625,1
2.0,-76.69749999999999,0.342054,33.27,2116695.0,1769235708.7739584,1
2.0,-88.9875,,,2118464.0,1769235708.8322916,1
2.0,17.92,,,2115544.0,1769235708.890625,1
2.0,106.26249999999999,,,2112974.0,1769235708.9489584,1
2.0,120.6425,0.345897,33.27,2112355.0,1769235709.0072916,1
2.0,68.82000000000001,,,2113906.0,1769235709.065625,1
2.0,31.64333333333333,,,2115726.0,1769235709.1239583,1
2.0,2.705,,,2117636.5,1769235709.1822917,1
2.0,-21.0625,,,2119566.0,1769235709.240625,1
2.0,-64.91499999999999,0.353584,33.25,2121506.0,1769235709.2989583,1
2.0,-128.48333333333335,,,2124164.0,1769235709.3572917,1
2.0,-92.025,,,2124520.0,1769235709.415625,1
2.0,48.605000000000004,,,2120359.0,1769235709.4739583,1
2.0,131.5575,0.356146,33.25,2117031.0,1769235709.5322917,1
2.0,140.89333333333335,,,2115689.0,1769235709.590625,1
2.0,99.72749999999999,,,2116524.0,1769235709.6489584,1
2.0,59.485,,,2117694.5,1769235709.7072916,1
2.0,20.423333333333336,0.366395,33.25,2119215.0,1769235709.765625,1
2.0,-10.752500000000001,,,2121655.5,1769235709.8239584,1
2.0,-65.565,,,2125156.0,1769235709.8822916,1
2.0,-117.97,,,2127501.0,1769235709.940625,1
2.0,-64.99,,,2128180.5,1769235709.9989583,1
2.0,64.9075,0.383049,33.25,2125024.0,1769235710.0572917,1
2.0,176.2375,,,2122656.5,1769235710.115625,1
2.0,206.7025,,,2121933.0,1769235710.1739583,1
2.0,185.96333333333334,,,2124523.0,1769235710.2322917,1
2.0,177.42000000000002,0.385611,33.25,2127423.0,1769235710.290625,1
2.0,129.4725,,,2130526.0,1769235710.3489583,1
2.0,91.945,,,2134347.0,1769235710.4072917,1
2.0,-13.373333333333333,,,2138751.0,1769235710.465625,1
2.0,-175.3025,0.385611,33.25,2143456.0,1769235710.5239584,1
2.0,-158.04,,,2143292.5,1769235710.5822916,1
2.0,-117.28666666666668,,,2140406.0,1769235710.640625,1
2.0,-239.365,,,2138942.0,1769235710.6989584,1
2.0,-263.76750000000004,0.392017,33.25,2137947.5,1769235710.7572916,1
2.0,-192.8175,,,2138632.0,1769235710.815625,1
2.0,-140.78666666666666,,,2139272.0,1769235710.8739583,1
2.0,-125.6475,,,2140507.0,1769235710.9322917,1
2.0,-73.67250000000001,,,2142008.0,1769235710.990625,1
2.0,-100.37,0.385611,33.25,2144367.0,1769235711.0489583,1
2.0,-106.82666666666667,,,2146714.5,1769235711.1072917,1
2.0,7.642499999999998,,,2145696.0,1769235711.165625,1
2.0,136.535,,,2142000.5,1769235711.2239583,1
2.0,195.3225,0.380487,33.25,2139722.0,1769235711.2822917,1
2.0,175.63666666666668,,,2139783.0,1769235711.340625,1
2.0,130.41,,,2141211.0,1769235711.3989584,1
2.0,75.6325,,,2143291.0,1769235711.4572916,1
2.0,29.386666666666667,0.374081,33.25,2144705.0,1769235711.515625,1
2.0,-6.875,,,2146936.0,1769235711.5739584,1
2.0,-78.4825,,,2149770.0,1769235711.6322916,1
2.0,-120.9625,,,2152707.0,1769235711.690625,1
2.0,-41.99666666666666,,,2150063.5,1769235711.7489583,1
2.0,65.31,0.371519,33.25,2146316.0,1769235711.8072917,1
2.0,118.29499999999999,,,2144946.0,1769235711.865625,1
2.0,94.74000000000001,,,2145455.0,1769235711.9239583,1
2.0,57.026666666666664,,,2147496.0,1769235711.9822917,1
2.0,26.7875,0.365113,33.25,2149692.0,1769235712.040625,1
2.0,-1.6275000000000002,,,2150826.0,1769235712.0989583,1
2.0,-34.67,,,2153188.5,1769235712.1572917,1
2.0,-96.96333333333332,,,2155893.0,1769235712.215625,1
2.0,-118.5325,0.368957,33.27,2158345.5,1769235712.2739584,1
2.0,-18.8825,,,2156588.0,1769235712.3322916,1
2.0,75.37333333333333,,,2153061.5,1769235712.390625,1
2.0,106.00500000000001,,,2150951.0,1769235712.4489584,1
2.0,81.295,0.368957,33.27,2150930.0,1769235712.5072916,1
2.0,63.0275,,,2152188.0,1769235712.565625,1
2.0,56.81,,,2153103.0,1769235712.6239583,1
2.0,66.3125,,,2154218.0,1769235712.6822917,1
2.0,60.322500000000005,,,2155967.0,1769235712.740625,1
2.0,24.902499999999996,0.363832,33.27,2159379.0,1769235712.7989583,1
2.0,51.76000000000001,,,2163294.0,1769235712.8572917,1
2.0,117.35750000000002,,,2162569.5,1769235712.915625,1
2.0,119.715,,,2160880.0,1769235712.9739583,1
2.0,14.665000000000001,0.376643,33.27,2161570.0,1769235713.0322917,1
2.0,-90.63,,,2163357.0,1769235713.090625,1
2.0,-135.6975,,,2166428.0,1769235713.1489584,1
2.0,-95.10749999999999,,,2168841.0,1769235713.2072916,1
2.0,-21.03,0.374081,33.23,2170852.5,1769235713.265625,1
2.0,-72.14,,,2172548.0,1769235713.3239584,1
2.0,-190.2125,,,2174626.5,1769235713.3822916,1
2.0,-104.76749999999998,,,2173436.0,1769235713.440625,1
2.0,-39.64000000000001,,,2167927.5,1769235713.4989583,1
2.0,-38.7275,0.374081,33.23,2164323.0,1769235713.5572917,1
2.0,-27.407500000000002,,,2162519.0,1769235713.615625,1
2.0,-30.86,,,2162260.0,1769235713.6739583,1
2.0,-73.48,,,2163609.0,1769235713.7322917,1
2.0,-75.995,0.3728,33.23,2165429.0,1769235713.790625,1
2.0,-67.8575,,,2167893.0,1769235713.8489583,1
2.0,-119.59,,,2170217.0,1769235713.9072917,1
2.0,-69.76,,,2173258.0,1769235713.965625,1
2.0,64.53,0.370238,33.23,2172660.0,1769235714.0239584,1
2.0,156.0075,,,2168832.0,1769235714.0822916,1
2.0,161.50666666666666,,,2165166.0,1769235714.140625,1
2.0,120.2475,,,2163537.0,1769235714.1989584,1
2.0,68.0975,0.365113,33.23,2163761.0,1769235714.2572916,1
2.0,26.4625,,,2164919.0,1769235714.315625,1
2.0,6.829999999999999,,,2165593.0,1769235714.3739583,1
2.0,-43.4875,,,2166409.5,1769235714.4322917,1
2.0,-94.535,,,2167718.0,1769235714.490625,1
2.0,-22.277499999999996,0.366395,33.23,2169548.5,1769235714.5489583,1
2.0,70.47,,,2167999.0,1769235714.6072917,1
2.0,107.9525,,,2163710.0,1769235714.665625,1
2.0,80.83999999999999,,,2158949.5,1769235714.7239583,1
2.0,38.5325,0.363832,33.23,2155961.0,1769235714.7822917,1
2.0,15.509999999999998,,,2155958.0,1769235714.840625,1
2.0,4.08,,,2157075.0,1769235714.8989584,1
2.0,-25.9,,,2158034.5,1769235714.9572916,1
2.0,-105.91333333333334,0.363832,33.23,2159316.0,1769235715.015625,1
2.0,-109.625,,,2162404.5,1769235715.0739584,1
2.0,8.504999999999999,,,2164726.0,1769235715.1322916,1
2.0,80.69749999999999,,,2160344.0,1769235715.190625,1
2.0,74.83333333333333,,,2152522.0,1769235715.2489583,1
2.0,28.2025,0.365113,33.25,2147037.0,1769235715.3072917,1
2.0,23.777499999999996,,,2140254.0,1769235715.365625,1
2.0,56.552499999999995,,,2136784.0,1769235715.4239583,1
2.0,55.45000000000001,,,2137074.0,1769235715.4822917,1
2.0,-21.494999999999997,0.371519,33.25,2138294.0,1769235715.540625,1
2.0,-112.23750000000001,,,2141933.5,1769235715.5989583,1
2.0,-32.2225,,,2146582.0,1769235715.6572917,1
2.0,74.26333333333334,,,2148511.0,1769235715.715625,1
2.0,79.265,0.367676,33.25,2145857.0,1769235715.7739584,1
2.0,23.005,,,2143210.5,1769235715.8322916,1
2.0,-28.333333333333332,,,2142280.0,1769235715.890625,1
2.0,-67.415,,,2143037.0,1769235715.9489584,1
2.0,-87.3825,0.368957,33.25,2145279.5,1769235716.0072916,1
2.0,-87.655,,,2146983.0,1769235716.065625,1
2.0,-120.43333333333334,,,2147985.0,1769235716.1239583,1
2.0,-102.83000000000001,,,2149542.0,1769235716.1822917,1
2.0,30.79,,,2150561.5,1769235716.240625,1
2.0,122.70750000000001,0.366395,33.23,2147426.0,1769235716.2989583,1
2.0,130.13,,,2140309.5,1769235716.3572917,1
2.0,67.64250000000001,,,2134622.0,1769235716.415625,1
2.0,0.13500000000000068,,,2132370.0,1769235716.4739583,1
2.0,-33.5775,0.366395,33.23,2132323.0,1769235716.5322917,1
2.0,-48.10999999999999,,,2132608.5,1769235716.590625,1
2.0,-90.38250000000001,,,2132401.0,1769235716.6489584,1
2.0,-165.375,,,2133318.0,1769235716.7072916,1
2.0,-119.82333333333334,0.362551,33.23,2134880.0,1769235716.765625,1
2.0,17.009999999999998,,,2134916.0,1769235716.8239584,1
2.0,105.2575,,,2128455.0,1769235716.8822916,1
2.0,109.89000000000001,,,2121029.0,1769235716.940625,1
2.0,70.46333333333332,,,2116019.0,1769235716.9989583,1
2.0,35.2375,0.363832,33.23,2114427.0,1769235717.0572917,1
2.0,-4.555,,,2113751.5,1769235717.115625,1
2.0,-34.2275,,,2112927.0,1769235717.1739583,1
2.0,-93.88333333333333,,,2112452.5,1769235717.2322917,1
2.0,-149.46,0.363832,33.25,2113130.0,1769235717.290625,1
2.0,-66.2475,,,2113433.0,1769235717.3489583,1
2.0,65.1575,,,2108509.0,1769235717.4072917,1
2.0,114.59666666666665,,,2102809.0,1769235717.465625,1
2.0,94.06,0.36127,33.25,2095533.5,1769235717.5239584,1
2.0,40.3025,,,2090861.0,1769235717.5822916,1
2.0,6.196666666666666,,,2089958.5,1769235717.640625,1
2.0,-26.18,,,2089674.0,1769235717.6989584,1
2.0,-53.95,0.36127,33.25,2090459.0,1769235717.7572916,1
2.0,-118.93749999999999,,,2092279.0,1769235717.815625,1
2.0,-158.87333333333333,,,2095733.0,1769235717.8739583,1
2.0,-73.6325,,,2098412.0,1769235717.9322917,1
2.0,73.665,,,2094031.0,1769235717.990625,1
2.0,152.5475,0.368957,33.25,2087478.0,1769235718.0489583,1
2.0,147.53333333333333,,,2083415.0,1769235718.1072917,1
2.0,124.575,,,2079479.5,1769235718.165625,1
2.0,122.3075,,,2079163.0,1769235718.2239583,1
2.0,107.0375,0.367676,33.23,2079079.0,1769235718.2822917,1
2.0,97.32666666666667,,,2078464.0,1769235718.340625,1
2.0,37.459999999999994,,,2070874.5,1769235718.3989584,1
2.0,-64.4875,,,2063477.0,1769235718.4572916,1
2.0,-60.97666666666667,0.366395,33.23,2073229.0,1769235718.515625,1
2.0,-6.0,,,2075759.0,1769235718.5739584,1
2.0,-58.260000000000005,,,2074365.0,1769235718.6322916,1
2.0,-120.785,,,2073534.0,1769235718.690625,1
2.0,-117.8,,,2072961.0,1769235718.7489583,1
2.0,-85.1825,0.366395,33.23,2072374.5,1769235718.8072917,1
2.0,-70.795,,,2073076.0,1769235718.865625,1
2.0,-67.45,,,2075859.0,1769235718.9239583,1
2.0,-111.86000000000001,,,2079866.0,1769235718.9822917,1
2.0,-119.315,0.368957,33.23,2083746.0,1769235719.040625,1
2.0,4.594999999999999,,,2082734.0,1769235719.0989583,1
2.0,115.27000000000001,,,2078270.0,1769235719.1572917,1
2.0,145.38333333333333,,,2075321.0,1769235719.215625,1
2.0,105.7325,0.3728,33.21,2074795.0,1769235719.2739584,1
2.0,60.6225,,,2076475.0,1769235719.3322916,1
2.0,30.256666666666664,,,2077764.0,1769235719.390625,1
2.0,4.617500000000001,,,2080091.0,1769235719.4489584,1
2.0,-36.99249999999999,0.365113,33.21,2081681.0,1769235719.5072916,1
2.0,-115.01249999999999,,,2084722.5,1769235719.565625,1
2.0,-110.22666666666667,,,2087055.0,1769235719.6239583,1
2.0,0.9199999999999999,,,2083433.0,1769235719.6822917,1
2.0,95.4525,,,2078750.0,1769235719.740625,1
2.0,111.99499999999999,0.366395,33.21,2075979.0,1769235719.7989583,1
2.0,75.53666666666666,,,2075831.0,1769235719.8572917,1
2.0,40.51,,,2077075.5,1769235719.915625,1
2.0,1.6524999999999999,,,2078453.0,1769235719.9739583,1
2.0,-22.1975,0.362551,33.21,2080080.5,1769235720.0322917,1
2.0,-59.41,,,2082103.0,1769235720.090625,1
2.0,-122.4025,,,2083675.0,1769235720.1489584,1
2.0,-91.07499999999999,,,2084274.5,1769235720.2072916,1
2.0,18.98,0.370238,33.21,2079524.0,1769235720.265625,1
2.0,91.9125,,,2074108.5,1769235720.3239584,1
2.0,107.51249999999999,,,2070687.0,1769235720.3822916,1
2.0,81.7875,,,2070528.5,1769235720.440625,1
2.0,82.56,,,2071812.0,1769235720.4989583,1
2.0,80.48750000000001,0.368957,33.21,2072742.0,1769235720.5572917,1
2.0,54.765,,,2074528.0,1769235720.615625,1
2.0,-25.0825,,,2077211.0,1769235720.6739583,1
2.0,-99.93666666666667,,,2080813.0,1769235720.7322917,1
2.0,-71.8375,0.366395,33.21,2082619.0,1769235720.790625,1
2.0,34.1175,,,2081061.5,1769235720.8489583,1
2.0,100.31,,,2079445.0,1769235720.9072917,1
2.0,88.67999999999999,,,2079684.0,1769235720.965625,1
2.0,46.4225,0.362551,33.21,2082378.0,1769235721.0239584,1
2.0,28.29,,,2085609.0,1769235721.0822916,1
2.0,13.863333333333335,,,2088310.0,1769235721.140625,1
2.0,-4.26,,,2091564.0,1769235721.1989584,1
2.0,-74.525,0.374081,33.21,2094944.0,1769235721.2572916,1
2.0,-140.14249999999998,,,2098988.5,1769235721.315625,1
2.0,-75.74333333333334,,,2100475.0,1769235721.3739583,1
2.0,31.7275,,,2098072.0,1769235721.4322917,1
2.0,83.8425,,,2097291.0,1769235721.490625,1
2.0,60.44,0.363832,33.21,2097646.0,1769235721.5489583,1
2.0,21.959999999999997,,,2099808.5,1769235721.6072917,1
2.0,-2.7625,,,2102209.0,1769235721.665625,1
2.0,-23.642500000000002,,,2104709.0,1769235721.7239583,1
2.0,-41.4475,0.365113,33.21,2108038.0,1769235721.7822917,1
2.0,-106.57666666666667,,,2111654.0,1769235721.840625,1
2.0,-158.17499999999998,,,2115907.0,1769235721.8989584,1
2.0,-72.3925,,,2116347.0,1769235721.9572916,1
2.0,35.00333333333333,0.365113,33.21,2114341.0,1769235722.015625,1
2.0,81.8775,,,2114464.5,1769235722.0739584,1
2.0,65.575,,,2115782.0,1769235722.1322916,1
2.0,24.827499999999997,,,2117653.0,1769235722.190625,1
2.0,-1.1733333333333331,,,2120710.0,1769235722.2489583,1
2.0,-23.14,0.363832,33.21,2123591.0,1769235722.3072917,1
2.0,-48.585,,,2126499.0,1769235722.365625,1
2.0,-119.18249999999999,,,2129791.0,1769235722.4239583,1
2.0,-143.56333333333336,,,2132797.0,1769235722.4822917,1
2.0,-54.79750000000001,0.362551,33.21,2131809.0,1769235722.540625,1
2.0,45.097500000000004,,,2128962.5,1769235722.5989583,1
2.0,71.8375,,,2127749.0,1769235722.6572917,1
2.0,46.47666666666667,,,2128799.5,1769235722.715625,1
2.0,27.384999999999998,0.354865,33.21,2130873.0,1769235722.7739584,1
2.0,22.682499999999997,,,2132829.0,1769235722.8322916,1
2.0,21.873333333333335,,,2135035.0,1769235722.890625,1
2.0,21.2925,,,2137266.0,1769235722.9489584,1
2.0,-12.555,0.368957,33.21,2139443.5,1769235723.0072916,1
2.0,5.77,,,2140376.0,1769235723.065625,1
2.0,110.58,,,2131042.0,1769235723.1239583,1
2.0,174.32999999999998,,,2121325.0,1769235723.1822917,1
2.0,182.4875,,,2118380.5,1769235723.240625,1
2.0,141.1,0.3728,33.21,2127439.0,1769235723.2989583,1
2.0,118.14333333333333,,,2131426.0,1769235723.3572917,1
2.0,129.3475,,,2133778.0,1769235723.415625,1
2.0,43.7975,,,2136506.0,1769235723.4739583,1
2.0,-91.995,0.376643,33.21,2138548.0,1769235723.5322917,1
2.0,-196.8166666666667,,,2140876.0,1769235723.590625,1
2.0,-356.76750000000004,,,2144774.5,1769235723.6489584,1
2.0,-363.5,,,2144422.0,1769235723.7072916,1
2.0,-184.45000000000002,0.376643,33.21,2142903.5,1769235723.765625,1
2.0,-47.269999999999996,,,2142432.0,1769235723.8239584,1
2.0,-22.167500000000004,,,2143354.0,1769235723.8822916,1
2.0,-14.725,,,2144913.0,1769235723.940625,1
2.0,6.12,,,2147238.0,1769235723.9989583,1
2.0,-5.63,0.380487,33.21,2150009.0,1769235724.0572917,1
2.0,-24.627499999999998,,,2153301.5,1769235724.115625,1
2.0,-95.8425,,,2157035.0,1769235724.1739583,1
2.0,-105.75999999999999,,,2157753.5,1769235724.2322917,1
2.0,-4.330000000000002,0.379206,33.18,2155506.0,1769235724.290625,1
2.0,95.9625,,,2153759.0,1769235724.3489583,1
2.0,129.69,,,2152684.0,1769235724.4072917,1
2.0,100.02333333333333,,,2153620.0,1769235724.465625,1
2.0,66.7175,0.381768,33.18,2155570.0,1769235724.5239584,1
2.0,35.787499999999994,,,2157071.0,1769235724.5822916,1
2.0,10.35,,,2158901.5,1769235724.640625,1
2.0,-22.96,,,2160771.0,1769235724.6989584,1
2.0,-90.36,0.383049,33.18,2163645.5,1769235724.7572916,1
2.0,-93.5,,,2164276.0,1769235724.815625,1
2.0,-4.276666666666666,,,2162352.0,1769235724.8739583,1
2.0,73.045,,,2159519.0,1769235724.9322917,1
2.0,97.98750000000001,,,2157885.0,1769235724.990625,1
2.0,59.96000000000001,0.375362,33.18,2158470.5,1769235725.0489583,1
2.0,29.78333333333333,,,2159201.0,1769235725.1072917,1
2.0,6.5,,,2159823.5,1769235725.165625,1
2.0,-15.3325,,,2160602.0,1769235725.2239583,1
2.0,-56.5475,0.366395,33.21,2161971.0,1769235725.2822917,1
2.0,-115.97666666666667,,,2163920.0,1769235725.340625,1
2.0,-96.17750000000001,,,2162083.5,1769235725.3989584,1
2.0,23.865000000000002,,,2157715.0,1769235725.4572916,1
2.0,110.74333333333334,0.362551,33.21,2155233.5,1769235725.515625,1
2.0,150.44,,,2154083.0,1769235725.5739584,1
2.0,151.76,,,2154507.0,1769235725.6322916,1
2.0,161.595,,,2155392.5,1769235725.690625,1
2.0,150.08666666666667,,,2156154.0,1769235725.7489583,1
2.0,111.49000000000001,0.374081,33.21,2158056.0,1769235725.8072917,1
2.0,21.0525,,,2160807.0,1769235725.865625,1
2.0,-127.77000000000001,,,2163444.5,1769235725.9239583,1
2.0,-167.01666666666668,,,2162983.0,1769235725.9822917,1
2.0,-67.735,0.374081,33.21,2159461.0,1769235726.040625,1
2.0,32.9325,,,2157169.0,1769235726.0989583,1
2.0,51.785,,,2156689.0,1769235726.1572917,1
2.0,6.260000000000001,,,2157804.0,1769235726.215625,1
2.0,-41.3475,0.3728,33.21,2158830.5,1769235726.2739584,1
2.0,-58.625,,,2159958.0,1769235726.3322916,1
2.0,-61.839999999999996,,,2161287.0,1769235726.390625,1
2.0,-86.27,,,2163312.0,1769235726.4489584,1
2.0,-139.72500000000002,0.367676,33.21,2165253.0,1769235726.5072916,1
2.0,-181.5775,,,2164822.0,1769235726.565625,1
2.0,-102.13666666666667,,,2161431.0,1769235726.6239583,1
2.0,28.115000000000002,,,2158815.0,1769235726.6822917,1
2.0,108.605,,,2156913.0,1769235726.740625,1
2.0,116.8825,0.367676,33.21,2157639.5,1769235726.7989583,1
2.0,77.66666666666667,,,2158783.0,1769235726.8572917,1
2.0,48.2875,,,2158197.0,1769235726.915625,1
2.0,23.697500000000005,,,2158285.0,1769235726.9739583,1
2.0,-2.9424999999999994,0.367676,33.21,2161628.0,1769235727.0322917,1
2.0,-35.81666666666666,,,2165806.0,1769235727.090625,1
2.0,-88.11,,,2165617.0,1769235727.1489584,1
2.0,-101.7675,,,2163533.0,1769235727.2072916,1
2.0,-5.583333333333331,0.370238,33.18,2163092.0,1769235727.265625,1
2.0,83.665,,,2162813.0,1769235727.3239584,1
2.0,111.85249999999999,,,2164152.0,1769235727.3822916,1
2.0,85.70499999999998,,,2165756.0,1769235727.440625,1
2.0,54.91,,,2167184.0,1769235727.4989583,1
2.0,30.855,0.371519,33.18,2168830.0,1769235727.5572917,1
2.0,-3.3725,,,2171113.0,1769235727.615625,1
2.0,-38.8925,,,2173199.0,1769235727.6739583,1
2.0,-96.13333333333333,,,2171758.0,1769235727.7322917,1
2.0,-122.2,0.371519,33.18,2168654.0,1769235727.790625,1
2.0,-32.035,,,2166751.0,1769235727.8489583,1
2.0,62.832499999999996,,,2166924.0,1769235727.9072917,1
2.0,81.20666666666666,,,2167800.5,1769235727.965625,1
2.0,45.837500000000006,0.367676,33.18,2167648.0,1769235728.0239584,1
2.0,3.2275,,,2165564.5,1769235728.0822916,1
2.0,-17.956666666666667,,,2164134.0,1769235728.140625,1
2.0,-34.8325,,,2161537.5,1769235728.1989584,1
2.0,-54.879999999999995,0.366395,33.21,2159057.0,1769235728.2572916,1
2.0,-108.54500000000002,,,2154401.5,1769235728.315625,1
2.0,-115.15000000000002,,,2147621.0,1769235728.3739583,1
2.0,-23.064999999999998,,,2143212.5,1769235728.4322917,1
2.0,79.68,,,2140476.0,1769235728.490625,1
2.0,118.435,0.365113,33.21,2140668.0,1769235728.5489583,1
2.0,101.65333333333335,,,2135655.5,1769235728.6072917,1
2.0,71.015,,,2128546.0,1769235728.665625,1
2.0,43.4925,,,2135880.0,1769235728.7239583,1
2.0,12.21,0.366395,33.21,2145470.0,1769235728.7822917,1
2.0,-16.126666666666665,,,2149827.5,1769235728.840625,1
2.0,-72.02,,,2152957.0,1769235728.8989584,1
2.0,-123.4775,,,2151179.0,1769235728.9572916,1
2.0,-63.099999999999994,0.367676,33.21,2150837.0,1769235729.015625,1
2.0,37.69,,,2153412.5,1769235729.0739584,1
2.0,88.8625,,,2157332.0,1769235729.1322916,1
2.0,86.9325,,,2160585.0,1769235729.190625,1
2.0,55.67000000000001,,,2164107.5,1769235729.2489583,1
2.0,32.769999999999996,0.367676,33.18,2166977.0,1769235729.3072917,1
2.0,16.285,,,2169529.5,1769235729.365625,1
2.0,-14.6125,,,2172638.0,1769235729.4239583,1
2.0,-51.21666666666666,,,2175631.0,1769235729.4822917,1
2.0,-99.555,0.362551,33.18,2176388.0,1769235729.540625,1
2.0,-127.8125,,,2174148.0,1769235729.5989583,1
2.0,-26.282499999999995,,,2173359.0,1769235729.6572917,1
2.0,65.3,,,2173588.5,1769235729.715625,1
2.0,94.85499999999999,0.363832,33.18,2175912.0,1769235729.7739584,1
2.0,84.21000000000001,,,2177610.0,1769235729.8322916,1
2.0,48.88666666666666,,,2179875.0,1769235729.890625,1
2.0,29.045,,,2181888.0,1769235729.9489584,1
2.0,10.3675,0.36127,33.18,2184518.5,1769235730.0072916,1
2.0,-12.79,,,2187411.0,1769235730.065625,1
2.0,-43.096666666666664,,,2188149.0,1769235730.1239583,1
2.0,-91.3,,,2186251.0,1769235730.1822917,1
2.0,-70.65,,,2185074.0,1769235730.240625,1
2.0,53.92,0.370238,33.18,2185113.0,1769235730.2989583,1
2.0,96.54,,,2186794.0,1769235730.3572917,1
2.0,83.07749999999999,,,2188513.0,1769235730.415625,1
2.0,44.4225,,,2189777.0,1769235730.4739583,1
2.0,15.457500000000001,0.359989,33.18,2191829.0,1769235730.5322917,1
2.0,0.5099999999999999,,,2194542.0,1769235730.590625,1
2.0,-11.6675,,,2197876.0,1769235730.6489584,1
2.0,-38.41,,,2197965.0,1769235730.7072916,1
2.0,-77.43666666666667,0.359989,33.18,2195982.0,1769235730.765625,1
2.0,-58.8875,,,2195126.0,1769235730.8239584,1
2.0,84.705,,,2195533.0,1769235730.8822916,1
2.0,230.6275,,,2197239.0,1769235730.940625,1
2.0,263.37666666666667,,,2199121.0,1769235730.9989583,1
2.0,191.14,0.357427,33.18,2196233.0,1769235731.0572917,1
2.0,55.3075,,,2186639.5,1769235731.115625,1
2.0,-68.125,,,2180736.0,1769235731.1739583,1
2.0,-171.08,,,2190027.0,1769235731.2322917,1
2.0,-377.96500000000003,0.36127,33.21,2195645.0,1769235731.290625,1
2.0,-549.085,,,2194133.0,1769235731.3489583,1
2.0,-423.94499999999994,,,2192493.5,1769235731.4072917,1
2.0,-244.18999999999997,,,2189942.0,1769235731.465625,1
2.0,-68.57249999999999,0.359989,33.21,2191129.0,1769235731.5239584,1
2.0,119.7475,,,2193847.0,1769235731.5822916,1
2.0,167.01,,,2196879.5,1769235731.640625,1
2.0,126.565,,,2199256.0,1769235731.6989584,1
2.0,90.525,0.363832,33.21,2201456.0,1769235731.7572916,1
2.0,61.2525,,,2204379.0,1769235731.815625,1
2.0,13.953333333333333,,,2207477.0,1769235731.8739583,1
2.0,-60.0,,,2207688.0,1769235731.9322917,1
2.0,-72.27499999999999,,,2205949.0,1769235731.990625,1
2.0,35.1625,0.363832,33.21,2204579.5,1769235732.0489583,1
2.0,104.95666666666666,,,2203968.0,1769235732.1072917,1
2.0,123.5675,,,2205144.5,1769235732.165625,1
2.0,92.81,,,2206717.0,1769235732.2239583,1
2.0,56.19500000000001,0.3728,33.21,2208146.5,1769235732.2822917,1
2.0,24.013333333333335,,,2209422.0,1769235732.340625,1
2.0,-4.88,,,2210698.5,1769235732.3989584,1
2.0,-53.465,,,2212652.0,1769235732.4572916,1
2.0,-124.37,0.36127,33.21,2214069.5,1769235732.515625,1
2.0,-133.785,,,2212060.0,1769235732.5739584,1
2.0,-16.2925,,,2208627.0,1769235732.6322916,1
2.0,88.9075,,,2206670.0,1769235732.690625,1
2.0,124.12666666666667,,,2206068.0,1769235732.7489583,1
2.0,105.4175,0.358708,33.21,2206383.5,1769235732.8072917,1
2.0,69.16,,,2206709.0,1769235732.865625,1
2.0,43.6625,,,2207234.0,1769235732.9239583,1
2.0,15.100000000000001,,,2208300.0,1769235732.9822917,1
2.0,-17.79,0.362551,33.21,2209657.0,1769235733.040625,1
2.0,-78.9175,,,2211535.0,1769235733.0989583,1
2.0,-131.755,,,2210935.5,1769235733.1572917,1
2.0,-63.96,,,2207241.0,1769235733.215625,1
2.0,58.7525,0.362551,33.18,2205247.0,1769235733.2739584,1
2.0,127.56,,,2204593.0,1769235733.3322916,1
2.0,129.98333333333332,,,2205294.0,1769235733.390625,1
2.0,89.42999999999999,,,2205644.0,1769235733.4489584,1
2.0,54.94,0.363832,33.18,2206399.0,1769235733.5072916,1
2.0,31.7775,,,2207584.5,1769235733.565625,1
2.0,8.106666666666666,,,2209623.0,1769235733.6239583,1
2.0,-33.615,,,2211657.0,1769235733.6822917,1
2.0,-103.4375,,,2210532.0,1769235733.740625,1
2.0,-102.15,0.362551,33.18,2206037.5,1769235733.7989583,1
2.0,4.329999999999998,,,2202550.0,1769235733.8572917,1
2.0,86.6275,,,2200778.0,1769235733.915625,1
2.0,110.0525,,,2200801.0,1769235733.9739583,1
2.0,70.0625,0.366395,33.18,2200400.0,1769235734.0322917,1
2.0,38.28666666666667,,,2199497.5,1769235734.090625,1
2.0,19.27,,,2198977.0,1769235734.1489584,1
2.0,-4.5,,,2199361.5,1769235734.2072916,1
2.0,-31.25666666666667,0.367676,33.21,2200387.0,1769235734.265625,1
2.0,-87.5975,,,2196752.0,1769235734.3239584,1
2.0,-133.4075,,,2189632.0,1769235734.3822916,1
2.0,-42.7675,,,2183354.0,1769235734.440625,1
2.0,61.61333333333334,,,2178673.0,1769235734.4989583,1
2.0,98.0575,0.375362,33.21,2177185.0,1769235734.5572917,1
2.0,91.36500000000001,,,2176150.0,1769235734.615625,1
2.0,56.44500000000001,,,2175043.5,1769235734.6739583,1
2.0,36.586666666666666,,,2174788.0,1769235734.7322917,1
2.0,24.8225,0.376643,33.21,2174994.0,1769235734.790625,1
2.0,-6.3475,,,2175732.0,1769235734.8489583,1
2.0,-47.035,,,2172725.0,1769235734.9072917,1
2.0,-89.81,,,2164854.5,1769235734.965625,1
2.0,-130.1125,0.3728,33.21,2158189.0,1769235735.0239584,1
2.0,-61.0975,,,2153414.5,1769235735.0822916,1
2.0,48.406666666666666,,,2151387.0,1769235735.140625,1
2.0,102.50750000000001,,,2149929.0,1769235735.1989584,1
2.0,114.6375,0.371519,33.18,2148304.0,1769235735.2572916,1
2.0,98.17249999999999,,,2147217.0,1769235735.315625,1
2.0,84.27999999999999,,,2145969.0,1769235735.3739583,1
2.0,81.23500000000001,,,2144717.0,1769235735.4322917,1
2.0,80.1925,,,2142235.0,1769235735.490625,1
2.0,46.294999999999995,0.366395,33.18,2133875.0,1769235735.5489583,1
2.0,28.493333333333336,,,2120800.5,1769235735.6072917,1
2.0,-19.835,,,2105984.0,1769235735.665625,1
2.0,-115.0,,,2100128.5,1769235735.7239583,1
2.0,-76.37,0.371519,33.18,2108057.0,1769235735.7822917,1
2.0,29.860000000000003,,,2108203.5,1769235735.840625,1
2.0,92.02499999999999,,,2106661.0,1769235735.8989584,1
2.0,103.025,,,2104173.5,1769235735.9572916,1
2.0,90.66666666666667,0.374081,33.18,2104228.0,1769235736.015625,1
2.0,104.2375,,,2106986.5,1769235736.0739584,1
2.0,93.8425,,,2104726.0,1769235736.1322916,1
2.0,25.085,,,2101093.0,1769235736.190625,1
2.0,-67.15333333333334,,,2097407.5,1769235736.2489583,1
2.0,-99.395,0.3728,33.18,2096404.0,1769235736.3072917,1
2.0,-117.57,,,2099009.5,1769235736.365625,1
2.0,-318.91,,,2101851.0,1769235736.4239583,1
2.0,-454.62000000000006,,,2104528.0,1769235736.4822917,1
2.0,-333.25,0.368957,33.18,2107755.0,1769235736.540625,1
2.0,-88.275,,,2111949.0,1769235736.5989583,1
2.0,37.885,,,2115849.0,1769235736.6572917,1
2.0,51.413333333333334,,,2117151.0,1769235736.715625,1
2.0,62.95,0.367676,33.18,2113515.0,1769235736.7739584,1
2.0,63.9075,,,2110939.0,1769235736.8322916,1
2.0,43.303333333333335,,,2109365.0,1769235736.890625,1
2.0,11.782499999999999,,,2108910.0,1769235736.9489584,1
2.0,-28.57,0.371519,33.18,2108891.5,1769235737.0072916,1
2.0,-82.6975,,,2109743.0,1769235737.065625,1
2.0,-60.56333333333333,,,2110772.0,1769235737.1239583,1
2.0,39.225,,,2112719.0,1769235737.1822917,1
2.0,98.8275,,,2115739.5,1769235737.240625,1
2.0,93.16999999999999,0.3728,33.18,2118991.0,1769235737.2989583,1
2.0,65.11,,,2120115.0,1769235737.3572917,1
2.0,38.6525,,,2116949.0,1769235737.415625,1
2.0,18.2425,,,2114240.0,1769235737.4739583,1
2.0,1.4649999999999999,0.374081,33.18,2111064.0,1769235737.5322917,1
2.0,-23.50333333333333,,,2109141.0,1769235737.590625,1
2.0,-44.595,,,2107496.5,1769235737.6489584,1
2.0,-88.2175,,,2103351.0,1769235737.7072916,1
2.0,-98.99000000000001,0.375362,33.18,2097121.0,1769235737.765625,1
2.0,-14.75,,,2094052.0,1769235737.8239584,1
2.0,72.045,,,2091879.0,1769235737.8822916,1
2.0,91.97,,,2091149.0,1769235737.940625,1
2.0,74.07,,,2090946.5,1769235737.9989583,1
2.0,47.587500000000006,0.367676,33.18,2090099.0,1769235738.0572917,1
2.0,36.1475,,,2085455.0,1769235738.115625,1
2.0,23.6775,,,2081539.0,1769235738.1739583,1
2.0,14.14,,,2080115.0,1769235738.2322917,1
2.0,-11.5625,0.366395,33.18,2079843.5,1769235738.290625,1
2.0,-45.5675,,,2080631.0,1769235738.3489583,1
2.0,-6.7875000000000005,,,2081228.0,1769235738.4072917,1
2.0,88.24666666666667,,,2081567.0,1769235738.465625,1
2.0,152.77,0.367676,33.18,2082475.0,1769235738.5239584,1
2.0,94.25999999999999,,,2083964.0,1769235738.5822916,1
2.0,5.166666666666667,,,2085501.5,1769235738.640625,1
2.0,17.405,,,2087829.0,1769235738.6989584,1
2.0,-58.375,0.368957,33.18,2087266.0,1769235738.7572916,1
2.0,-250.0825,,,2085128.0,1769235738.815625,1
2.0,-288.82666666666665,,,2085492.5,1769235738.8739583,1
2.0,-221.07,,,2087457.0,1769235738.9322917,1
2.0,-193.85250000000002,,,2091171.5,1769235738.990625,1
2.0,-126.62,0.367676,33.18,2094489.0,1769235739.0489583,1
2.0,26.52333333333333,,,2097441.0,1769235739.1072917,1
2.0,112.95249999999999,,,2100522.0,1769235739.165625,1
2.0,140.2475,,,2104048.5,1769235739.2239583,1
2.0,119.60749999999999,0.363832,33.16,2107920.0,1769235739.2822917,1
2.0,82.15333333333334,,,2111151.0,1769235739.340625,1
2.0,58.182500000000005,,,2113449.0,1769235739.3989584,1
2.0,29.2,,,2111197.0,1769235739.4572916,1
2.0,-10.673333333333334,0.362551,33.16,2110082.0,1769235739.515625,1
2.0,-51.152499999999996,,,2110011.0,1769235739.5739584,1
2.0,-114.15,,,2111556.0,1769235739.6322916,1
2.0,-124.025,,,2113256.5,1769235739.690625,1
2.0,-18.22,,,2114875.0,1769235739.7489583,1
2.0,75.3125,0.362551,33.16,2117175.5,1769235739.8072917,1
2.0,111.225,,,2119561.0,1769235739.865625,1
2.0,98.75999999999999,,,2122495.5,1769235739.9239583,1
2.0,67.43333333333334,,,2125639.0,1769235739.9822917,1
2.0,47.7475,0.365113,33.16,2127074.0,1769235740.040625,1
2.0,29.265,,,2125103.0,1769235740.0989583,1
2.0,-6.584999999999999,,,2124046.0,1769235740.1572917,1
2.0,-39.903333333333336,,,2123367.0,1769235740.215625,1
2.0,-89.31750000000001,0.363832,33.16,2123835.0,1769235740.2739584,1
2.0,-112.4775,,,2125545.5,1769235740.3322916,1
2.0,-13.11,,,2126964.0,1769235740.390625,1
2.0,104.525,,,2128543.5,1769235740.4489584,1
2.0,174.54500000000002,0.362551,33.16,2130554.0,1769235740.5072916,1
2.0,186.275,,,2132531.0,1769235740.565625,1
2.0,182.5,,,2134967.0,1769235740.6239583,1
2.0,186.4125,,,2134247.5,1769235740.6822917,1
2.0,106.0325,,,2131150.0,1769235740.740625,1
2.0,14.1775,0.36127,33.16,2129321.0,1769235740.7989583,1
2.0,-53.77666666666667,,,2128238.0,1769235740.8572917,1
2.0,-161.93,,,2127916.0,1769235740.915625,1
2.0,-184.95999999999998,,,2128592.0,1769235740.9739583,1
2.0,-41.9775,0.362551,33.16,2129531.0,1769235741.0322917,1
2.0,39.68333333333333,,,2130680.0,1769235741.090625,1
2.0,46.0375,,,2132116.0,1769235741.1489584,1
2.0,8.18,,,2134545.5,1769235741.2072916,1
2.0,13.933333333333332,0.368957,33.18,2136857.0,1769235741.265625,1
2.0,22.86,,,2136827.5,1769235741.3239584,1
2.0,-116.5675,,,2133709.0,1769235741.3822916,1
2.0,-267.1775,,,2131550.0,1769235741.440625,1
2.0,-305.28666666666663,,,2130755.0,1769235741.4989583,1
2.0,-288.44,0.368957,33.18,2130808.0,1769235741.5572917,1
2.0,-165.95250000000001,,,2132025.5,1769235741.615625,1
2.0,30.0625,,,2133047.0,1769235741.6739583,1
2.0,130.13333333333333,,,2134256.0,1769235741.7322917,1
2.0,135.9075,0.370238,33.18,2136019.0,1769235741.790625,1
2.0,103.07,,,2138222.5,1769235741.8489583,1
2.0,78.1675,,,2140592.0,1769235741.9072917,1
2.0,55.64333333333334,,,2140386.5,1769235741.965625,1
2.0,21.2525,0.366395,33.18,2136681.0,1769235742.0239584,1
2.0,-25.085,,,2133330.5,1769235742.0822916,1
2.0,-89.07333333333334,,,2131019.0,1769235742.140625,1
2.0,-115.35000000000001,,,2130654.0,1769235742.1989584,1
2.0,-12.4125,0.366395,33.16,2131462.0,1769235742.2572916,1
2.0,95.96,,,2131675.0,1769235742.315625,1
2.0,133.21666666666667,,,2132318.0,1769235742.3739583,1
2.0,126.97250000000001,,,2133174.0,1769235742.4322917,1
2.0,92.895,,,2134709.0,1769235742.490625,1
2.0,64.695,0.365113,33.16,2136258.0,1769235742.5489583,1
2.0,45.51666666666667,,,2136800.0,1769235742.6072917,1
2.0,8.352500000000001,,,2132734.0,1769235742.665625,1
2.0,-37.24,,,2127633.5,1769235742.7239583,1
2.0,-98.6525,0.3728,33.16,2124187.0,1769235742.7822917,1
2.0,-133.58666666666667,,,2122660.0,1769235742.840625,1
2.0,-50.0825,,,2121908.0,1769235742.8989584,1
2.0,75.4175,,,2121357.0,1769235742.9572916,1
2.0,125.86000000000001,0.374081,33.16,2120324.5,1769235743.015625,1
2.0,132.66,,,2119771.0,1769235743.0739584,1
2.0,112.77749999999999,,,2120362.5,1769235743.1322916,1
2.0,93.2775,,,2121067.0,1769235743.190625,1
2.0,92.25333333333333,,,2118873.5,1769235743.2489583,1
2.0,78.185,0.367676,33.16,2111315.0,1769235743.3072917,1
2.0,48.46,,,2104931.0,1769235743.365625,1
2.0,26.397499999999997,,,2099982.0,1769235743.4239583,1
2.0,-21.476666666666663,,,2097633.5,1769235743.4822917,1
2.0,6.844999999999999,0.363832,33.16,2096030.0,1769235743.540625,1
2.0,136.0625,,,2094776.0,1769235743.5989583,1
2.0,198.225,,,2093911.5,1769235743.6572917,1
2.0,170.62666666666667,,,2094175.0,1769235743.715625,1
2.0,45.2675,0.365113,33.16,2095149.5,1769235743.7739584,1
2.0,-48.93,,,2096445.0,1769235743.8322916,1
2.0,-78.72333333333334,,,2093032.5,1769235743.890625,1
2.0,-235.0275,,,2087011.0,1769235743.9489584,1
2.0,-364.9525,0.365113,33.16,2082605.0,1769235744.0072916,1
2.0,-324.60749999999996,,,2080065.0,1769235744.065625,1
2.0,-261.65999999999997,,,2079639.0,1769235744.1239583,1
2.0,-188.415,,,2079276.0,1769235744.1822917,1
2.0,-10.422499999999996,,,2078514.0,1769235744.240625,1
2.0,95.44,0.365113,33.16,2078934.0,1769235744.2989583,1
2.0,114.08666666666666,,,2079617.0,1769235744.3572917,1
2.0,93.6,,,2080650.0,1769235744.415625,1
2.0,62.8125,,,2081109.0,1769235744.4739583,1
2.0,51.535,0.365113,33.16,2075541.0,1769235744.5322917,1
2.0,30.073333333333334,,,2069386.0,1769235744.590625,1
2.0,-3.0175,,,2064703.0,1769235744.6489584,1
2.0,-50.7775,,,2062525.0,1769235744.7072916,1
2.0,-99.69333333333333,0.363832,33.16,2062275.0,1769235744.765625,1
2.0,-81.89750000000001,,,2061830.0,1769235744.8239584,1
2.0,22.682499999999997,,,2062111.0,1769235744.8822916,1
2.0,81.16,,,2062882.0,1769235744.940625,1
2.0,91.80333333333333,,,2064170.0,1769235744.9989583,1
2.0,75.83749999999999,0.363832,33.16,2065735.0,1769235745.0572917,1
2.0,52.1425,,,2067451.0,1769235745.115625,1
2.0,40.580000000000005,,,2063888.0,1769235745.1739583,1
2.0,23.346666666666668,,,2058233.0,1769235745.2322917,1
2.0,-3.5974999999999997,0.362551,33.16,2054298.5,1769235745.290625,1
2.0,-40.6525,,,2052096.0,1769235745.3489583,1
2.0,-80.48750000000001,,,2052196.0,1769235745.4072917,1
2.0,-48.98333333333333,,,2052494.0,1769235745.465625,1
2.0,53.70250000000001,0.363832,33.16,2052594.5,1769235745.5239584,1
2.0,126.995,,,2053632.0,1769235745.5822916,1
2.0,137.64333333333335,,,2054589.5,1769235745.640625,1
2.0,133.14,,,2055597.0,1769235745.6989584,1
2.0,116.02250000000001,0.366395,33.16,2055834.0,1769235745.7572916,1
2.0,111.545,,,2054217.5,1769235745.815625,1
2.0,102.31,,,2048319.0,1769235745.8739583,1
2.0,-23.475,,,2043024.0,1769235745.9322917,1
2.0,-151.745,,,2037959.0,1769235745.990625,1
2.0,-148.985,0.367676,33.16,2035889.5,1769235746.0489583,1
2.0,-203.91,,,2035566.0,1769235746.1072917,1
2.0,-180.98250000000002,,,2035862.0,1769235746.165625,1
2.0,-80.79,,,2037392.0,1769235746.2239583,1
2.0,-17.25,0.366395,33.16,2040183.0,1769235746.2822917,1
2.0,-18.799999999999997,,,2043027.0,1769235746.340625,1
2.0,-3.5749999999999997,,,2045464.0,1769235746.3989584,1
2.0,9.3825,,,2048410.0,1769235746.4572916,1
2.0,-4.069999999999999,0.363832,33.16,2047102.0,1769235746.515625,1
2.0,-14.55,,,2046054.0,1769235746.5739584,1
2.0,-58.3475,,,2046027.0,1769235746.6322916,1
2.0,-90.36999999999999,,,2048355.0,1769235746.690625,1
2.0,-37.28333333333334,,,2050862.0,1769235746.7489583,1
2.0,47.8525,0.366395,33.16,2052557.5,1769235746.8072917,1
2.0,87.415,,,2055026.0,1769235746.865625,1
2.0,80.205,,,2058166.5,1769235746.9239583,1
2.0,50.06333333333333,,,2061095.0,1769235746.9822917,1
2.0,34.7625,0.368957,33.16,2064475.0,1769235747.040625,1
2.0,22.715,,,2064437.0,1769235747.0989583,1
2.0,-4.8575,,,2063020.0,1769235747.1572917,1
2.0,-34.873333333333335,,,2061690.5,1769235747.215625,1
2.0,-75.205,0.368957,33.16,2061237.0,1769235747.2739584,1
2.0,-104.9975,,,2063159.5,1769235747.3322916,1
2.0,-38.42333333333333,,,2064728.0,1769235747.390625,1
2.0,54.665000000000006,,,2066917.0,1769235747.4489584,1
2.0,97.99,0.368957,33.16,2068944.0,1769235747.5072916,1
2.0,98.4575,,,2071708.0,1769235747.565625,1
2.0,78.03666666666668,,,2074954.0,1769235747.6239583,1
2.0,59.48500000000001,,,2077641.5,1769235747.6822917,1
2.0,47.525000000000006,,,2077639.0,1769235747.740625,1
2.0,25.4925,0.365113,33.16,2076405.0,1769235747.7989583,1
2.0,-7.066666666666667,,,2075206.5,1769235747.8572917,1
2.0,-40.8125,,,2074584.0,1769235747.915625,1
2.0,-78.98,,,2075705.5,1769235747.9739583,1
2.0,-23.195,0.362551,33.16,2077783.0,1769235748.0322917,1
2.0,98.3,,,2079358.0,1769235748.090625,1
2.0,164.565,,,2081110.0,1769235748.1489584,1
2.0,201.2825,,,2083383.5,1769235748.2072916,1
2.0,211.26333333333332,0.363832,33.16,2085855.0,1769235748.265625,1
2.0,179.675,,,2088375.5,1769235748.3239584,1
2.0,112.115,,,2088248.0,1769235748.3822916,1
2.0,-8.6475,,,2087028.0,1769235748.440625,1
2.0,-130.75333333333333,,,2086425.0,1769235748.4989583,1
2.0,-129.46249999999998,0.368957,33.16,2087117.0,1769235748.5572917,1
2.0,-236.18,,,2089635.5,1769235748.615625,1
2.0,-465.27750000000003,,,2091503.0,1769235748.6739583,1
2.0,-459.82,,,2093390.0,1769235748.7322917,1
2.0,-273.1725,0.368957,33.16,2095950.0,1769235748.790625,1
2.0,-44.807500000000005,,,2098479.5,1769235748.8489583,1
2.0,105.205,,,2101637.0,1769235748.9072917,1
2.0,113.98000000000002,,,2103930.5,1769235748.965625,1
2.0,105.1575,0.362551,33.16,2103521.0,1769235749.0239584,1
2.0,91.42250000000001,,,2102271.0,1769235749.0822916,1
2.0,63.80333333333334,,,2102415.0,1769235749.140625,1
2.0,7.9575,,,2103133.0,1769235749.1989584,1
2.0,-60.8525,0.362551,33.15,2105110.0,1769235749.2572916,1
2.0,-52.9975,,,2107115.0,1769235749.315625,1
2.0,41.63,,,2108994.0,1769235749.3739583,1
2.0,101.25,,,2111456.0,1769235749.4322917,1
2.0,107.645,,,2114200.0,1769235749.490625,1
2.0,71.6575,0.362551,33.15,2117477.0,1769235749.5489583,1
2.0,44.74000000000001,,,2119292.5,1769235749.6072917,1
2.0,29.799999999999997,,,2117917.0,1769235749.665625,1
2.0,5.365,,,2116529.0,1769235749.7239583,1
2.0,-18.517500000000002,0.368957,33.15,2115618.0,1769235749.7822917,1
2.0,-63.03333333333333,,,2116223.5,1769235749.840625,1
2.0,-95.505,,,2117739.0,1769235749.8989584,1
2.0,2.485000000000001,,,2118492.0,1769235749.9572916,1
2.0,120.23333333333335,0.367676,33.15,2119689.0,1769235750.015625,1
2.0,171.195,,,2120877.0,1769235750.0739584,1
2.0,171.7475,,,2123185.5,1769235750.1322916,1
2.0,109.435,,,2124853.0,1769235750.190625,1
2.0,76.92666666666666,,,2126992.5,1769235750.2489583,1
2.0,58.082499999999996,0.366395,33.18,2126094.0,1769235750.3072917,1
2.0,32.902499999999996,,,2123435.0,1769235750.365625,1
2.0,-18.415,,,2121714.0,1769235750.4239583,1
2.0,-71.50666666666667,,,2120959.0,1769235750.4822917,1
2.0,-20.799999999999997,0.362551,33.18,2121350.0,1769235750.540625,1
2.0,88.1875,,,2121350.0,1769235750.5989583,1
2.0,33.9775,,,2121258.0,1769235750.6572917,1
2.0,10.366666666666667,,,2121617.0,1769235750.715625,1
2.0,-18.857499999999998,0.362551,33.18,2122706.5,1769235750.7739584,1
2.0,-227.39499999999998,,,2123875.0,1769235750.8322916,1
2.0,-430.31,,,2126183.0,1769235750.890625,1
2.0,-380.6825,,,2127628.0,1769235750.9489584,1
2.0,-229.6325,0.363832,33.18,2125447.5,1769235751.0072916,1
2.0,-194.90499999999997,,,2124173.0,1769235751.065625,1
2.0,-159.76666666666665,,,2124424.0,1769235751.1239583,1
2.0,-14.71,,,2125619.5,1769235751.1822917,1
2.0,152.97750000000002,,,2127448.0,1769235751.240625,1
2.0,194.16750000000002,0.367676,33.18,2128726.5,1769235751.2989583,1
2.0,160.88,,,2130587.0,1769235751.3572917,1
2.0,108.01000000000002,,,2132289.0,1769235751.415625,1
2.0,73.225,,,2133927.0,1769235751.4739583,1
2.0,33.635000000000005,0.366395,33.18,2136020.5,1769235751.5322917,1
2.0,1.126666666666667,,,2136275.0,1769235751.590625,1
2.0,-67.52000000000001,,,2133809.0,1769235751.6489584,1
2.0,-107.825,,,2132107.0,1769235751.7072916,1
2.0,-17.466666666666665,0.367676,33.18,2131549.0,1769235751.765625,1
2.0,78.56,,,2131770.0,1769235751.8239584,1
2.0,113.7425,,,2131609.0,1769235751.8822916,1
2.0,76.3925,,,2131497.5,1769235751.940625,1
2.0,43.77,,,2131369.0,1769235751.9989583,1
2.0,23.78,0.365113,33.18,2132352.5,1769235752.0572917,1
2.0,7.305,,,2133650.0,1769235752.115625,1
2.0,-20.4925,,,2133891.5,1769235752.1739583,1
2.0,-87.33666666666666,,,2130558.0,1769235752.2322917,1
2.0,-96.2025,0.370238,33.16,2126243.0,1769235752.290625,1
2.0,29.3025,,,2123557.0,1769235752.3489583,1
2.0,133.29500000000002,,,2121145.5,1769235752.4072917,1
2.0,148.04666666666665,,,2120474.0,1769235752.465625,1
2.0,102.0825,0.365113,33.16,2119204.0,1769235752.5239584,1
2.0,53.905,,,2117437.0,1769235752.5822916,1
2.0,31.416666666666668,,,2116318.0,1769235752.640625,1
2.0,25.8825,,,2116479.0,1769235752.6989584,1
2.0,-13.17,0.363832,33.16,2117007.0,1769235752.7572916,1
2.0,-66.8375,,,2115340.5,1769235752.815625,1
2.0,3.886666666666668,,,2110264.0,1769235752.8739583,1
2.0,161.0675,,,2106408.0,1769235752.9322917,1
2.0,172.94,,,2103649.0,1769235752.990625,1
2.0,4.390000000000001,0.363832,33.16,2103172.5,1769235753.0489583,1
2.0,-92.62,,,2103825.0,1769235753.1072917,1
2.0,-137.175,,,2103539.0,1769235753.165625,1
2.0,-323.34749999999997,,,2104659.0,1769235753.2239583,1
2.0,-388.10249999999996,0.362551,33.15,2106098.0,1769235753.2822917,1
2.0,-297.97999999999996,,,2108148.0,1769235753.340625,1
2.0,-225.12,,,2109671.0,1769235753.3989584,1
2.0,-161.39000000000001,,,2105563.5,1769235753.4572916,1
2.0,-16.386666666666667,0.359989,33.15,2101584.0,1769235753.515625,1
2.0,133.93,,,2098927.0,1769235753.5739584,1
2.0,201.45,,,2097882.0,1769235753.6322916,1
2.0,170.70000000000002,,,2098357.5,1769235753.690625,1
2.0,123.81,,,2098571.0,1769235753.7489583,1
2.0,103.9125,0.357427,33.15,2099260.5,1769235753.8072917,1
2.0,69.3825,,,2100289.0,1769235753.865625,1
2.0,20.369999999999997,,,2101578.0,1769235753.9239583,1
2.0,-34.156666666666666,,,2102441.0,1769235753.9822917,1
2.0,-92.72749999999999,0.36127,33.15,2100029.0,1769235754.040625,1
2.0,-34.4225,,,2096080.5,1769235754.0989583,1
2.0,89.99,,,2093467.0,1769235754.1572917,1
2.0,138.80333333333334,,,2093085.0,1769235754.215625,1
2.0,145.19750000000002,0.375362,33.15,2093354.0,1769235754.2739584,1
2.0,110.5675,,,2093735.5,1769235754.3322916,1
2.0,77.82333333333334,,,2094197.0,1769235754.390625,1
2.0,56.17750000000001,,,2095466.5,1769235754.4489584,1
2.0,22.97,0.363832,33.15,2097275.0,1769235754.5072916,1
2.0,-14.01,,,2098221.0,1769235754.565625,1
2.0,-60.64000000000001,,,2094901.0,1769235754.6239583,1
2.0,-92.1875,,,2091594.0,1769235754.6822917,1
2.0,15.26,,,2090127.5,1769235754.740625,1
2.0,157.89,0.363832,33.15,2089202.0,1769235754.7989583,1
2.0,198.84333333333333,,,2087254.5,1769235754.8572917,1
2.0,172.85750000000002,,,2084615.0,1769235754.915625,1
2.0,115.86999999999999,,,2083522.0,1769235754.9739583,1
2.0,110.995,0.358708,33.15,2083320.0,1769235755.0322917,1
2.0,98.01,,,2084410.5,1769235755.090625,1
2.0,46.79,,,2083017.0,1769235755.1489584,1
2.0,-22.73,,,2080383.0,1769235755.2072916,1
2.0,-131.6833333333333,0.359989,33.16,2078160.5,1769235755.265625,1
2.0,-174.2,,,2077357.0,1769235755.3239584,1
2.0,-53.847500000000004,,,2078395.5,1769235755.3822916,1
2.0,-49.917500000000004,,,2080208.0,1769235755.440625,1
2.0,-60.50999999999999,,,2082608.0,1769235755.4989583,1
2.0,-48.715,0.36127,33.16,2084446.0,1769235755.5572917,1
2.0,-244.365,,,2087497.5,1769235755.615625,1
2.0,-403.965,,,2091357.0,1769235755.6739583,1
2.0,-295.87,,,2093366.0,1769235755.7322917,1
2.0,-141.73749999999998,0.36127,33.16,2092897.0,1769235755.790625,1
2.0,-113.3675,,,2093252.0,1769235755.8489583,1
2.0,-119.68,,,2092814.0,1769235755.9072917,1
2.0,-20.436666666666667,,,2092275.0,1769235755.965625,1
2.0,130.2475,0.36127,33.16,2094498.0,1769235756.0239584,1
2.0,198.70000000000002,,,2097107.0,1769235756.0822916,1
2.0,176.29999999999998,,,2100739.5,1769235756.140625,1
2.0,120.02,,,2104397.0,1769235756.1989584,1
2.0,87.185,0.356146,33.16,2108312.0,1769235756.2572916,1
2.0,49.3925,,,2111463.0,1769235756.315625,1
2.0,10.03,,,2111544.0,1769235756.3739583,1
2.0,-36.144999999999996,,,2111235.0,1769235756.4322917,1
2.0,-115.94500000000001,,,2111431.0,1769235756.490625,1
2.0,-120.36,0.357427,33.16,2111810.0,1769235756.5489583,1
2.0,7.526666666666666,,,2112491.0,1769235756.6072917,1
2.0,104.865,,,2113248.5,1769235756.665625,1
2.0,134.9475,,,2114191.0,1769235756.7239583,1
2.0,114.495,0.365113,33.16,2116424.0,1769235756.7822917,1
2.0,77.52666666666666,,,2119289.0,1769235756.840625,1
2.0,55.9175,,,2122602.0,1769235756.8989584,1
2.0,35.9375,,,2125694.0,1769235756.9572916,1
2.0,3.966666666666667,0.36127,33.16,2125670.5,1769235757.015625,1
2.0,-37.86,,,2125843.0,1769235757.0739584,1
2.0,-103.44500000000001,,,2126887.5,1769235757.1322916,1
2.0,-85.00999999999999,,,2128758.0,1769235757.190625,1
2.0,61.76,,,2131320.0,1769235757.2489583,1
2.0,168.3625,0.357427,33.16,2134167.5,1769235757.3072917,1
2.0,202.3825,,,2137642.0,1769235757.365625,1
2.0,177.39499999999998,,,2140619.0,1769235757.4239583,1
2.0,147.66,,,2143791.0,1769235757.4822917,1
2.0,127.93,0.354865,33.16,2146560.0,1769235757.540625,1
2.0,41.30500000000001,,,2148373.0,1769235757.5989583,1
2.0,-90.9625,,,2148328.5,1769235757.6572917,1
2.0,-92.15666666666668,,,2149536.0,1769235757.715625,1
2.0,-173.45999999999998,0.354865,33.16,2151050.5,1769235757.7739584,1
2.0,-422.02,,,2153870.0,1769235757.8322916,1
2.0,-445.95,,,2155454.0,1769235757.890625,1
2.0,-293.13,,,2158080.5,1769235757.9489584,1
2.0,-108.69749999999999,0.356146,33.16,2160096.0,1769235758.0072916,1
2.0,63.837500000000006,,,2163647.0,1769235758.065625,1
2.0,128.26333333333332,,,2166629.0,1769235758.1239583,1
2.0,105.725,,,2169593.5,1769235758.1822917,1
2.0,65.285,,,2169910.0,1769235758.240625,1
2.0,31.29,0.357427,33.16,2169969.0,1769235758.2989583,1
2.0,-30.863333333333333,,,2170949.0,1769235758.3572917,1
2.0,-91.6,,,2172580.0,1769235758.415625,1
2.0,-38.004999999999995,,,2174783.0,1769235758.4739583,1
2.0,80.92999999999999,0.36127,33.16,2175711.0,1769235758.5322917,1
2.0,134.3033333333333,,,2177755.0,1769235758.590625,1
2.0,117.58749999999999,,,2180245.0,1769235758.6489584,1
2.0,68.4575,,,2182318.0,1769235758.7072916,1
2.0,49.93666666666667,0.362551,33.16,2185141.0,1769235758.765625,1
2.0,29.572499999999998,,,2186288.0,1769235758.8239584,1
2.0,5.5025,,,2185784.0,1769235758.8822916,1
2.0,-52.5025,,,2185663.5,1769235758.940625,1
2.0,-107.59333333333332,,,2186570.0,1769235758.9989583,1
2.0,-37.475,0.358708,33.16,2188609.5,1769235759.0572917,1
2.0,113.78999999999999,,,2190271.0,1769235759.115625,1
2.0,198.495,,,2191387.0,1769235759.1739583,1
2.0,222.14333333333335,,,2193749.0,1769235759.2322917,1
2.0,194.2475,0.358708,33.16,2196556.0,1769235759.290625,1
2.0,138.2975,,,2199385.5,1769235759.3489583,1
2.0,48.404999999999994,,,2202121.0,1769235759.4072917,1
2.0,-27.78333333333333,,,2202847.5,1769235759.465625,1
2.0,-113.36499999999998,0.358708,33.16,2201490.0,1769235759.5239584,1
2.0,-235.45,,,2201126.5,1769235759.5822916,1
2.0,-197.96333333333334,,,2201774.0,1769235759.640625,1
2.0,-19.902499999999996,,,2202886.5,1769235759.6989584,1
2.0,80.25,0.36127,33.16,2204005.0,1769235759.7572916,1
2.0,87.6825,,,2204463.5,1769235759.815625,1
2.0,52.47666666666667,,,2205590.0,1769235759.8739583,1
2.0,44.0975,,,2205927.0,1769235759.9322917,1
2.0,61.682500000000005,,,2206905.0,1769235759.990625,1
2.0,56.9325,0.365113,33.16,2208577.0,1769235760.0489583,1
2.0,46.366666666666674,,,2208960.0,1769235760.1072917,1
2.0,5.720000000000001,,,2207403.0,1769235760.165625,1
2.0,-54.4975,,,2207170.0,1769235760.2239583,1
2.0,50.15,0.366395,33.15,2207555.0,1769235760.2822917,1
2.0,203.51,,,2208791.0,1769235760.340625,1
2.0,224.485,,,2210196.0,1769235760.3989584,1
2.0,163.88750000000002,,,2210408.5,1769235760.4572916,1
2.0,81.33666666666666,0.367676,33.15,2211050.0,1769235760.515625,1
2.0,7.632500000000002,,,2211702.0,1769235760.5739584,1
2.0,-36.457499999999996,,,2213540.5,1769235760.6322916,1
2.0,-43.2275,,,2215197.0,1769235760.690625,1
2.0,-48.54666666666666,,,2214612.0,1769235760.7489583,1
2.0,-43.885,0.356146,33.15,2211931.0,1769235760.8072917,1
2.0,-154.0775,,,2210152.0,1769235760.865625,1
2.0,-209.35,,,2208878.0,1769235760.9239583,1
2.0,-70.86,,,2209574.5,1769235760.9822917,1
2.0,-74.565,0.354865,33.15,2209085.0,1769235761.040625,1
2.0,-259.0,,,2208777.5,1769235761.0989583,1
2.0,-284.81,,,2208763.0,1769235761.1572917,1
2.0,-26.749999999999996,,,2209361.0,1769235761.215625,1
2.0,97.49,0.354865,33.15,2210268.5,1769235761.2739584,1
2.0,-92.9,,,2208517.0,1769235761.3322916,1
2.0,-209.08,,,2202893.5,1769235761.390625,1
2.0,-190.31,,,2198156.0,1769235761.4489584,1
2.0,-207.7425,0.356146,33.15,2194974.0,1769235761.5072916,1
2.0,-281.10999999999996,,,2193175.0,1769235761.565625,1
2.0,-275.3666666666666,,,2191690.0,1769235761.6239583,1
2.0,-171.26999999999998,,,2189783.0,1769235761.6822917,1
2.0,-36.8875,,,2188553.5,1769235761.740625,1
2.0,125.35750000000002,0.356146,33.15,2188244.0,1769235761.7989583,1
2.0,258.2366666666667,,,2188254.0,1769235761.8572917,1
2.0,266.375,,,2185918.5,1769235761.915625,1
2.0,210.625,,,2178591.0,1769235761.9739583,1
2.0,160.405,0.357427,33.15,2170337.0,1769235762.0322917,1
2.0,91.89333333333333,,,2163777.0,1769235762.090625,1
2.0,15.57,,,2159799.5,1769235762.1489584,1
2.0,-73.0675,,,2157298.0,1769235762.2072916,1
2.0,-133.47666666666666,0.357427,33.15,2155344.0,1769235762.265625,1
2.0,-53.9,,,2153729.0,1769235762.3239584,1
2.0,94.7725,,,2152153.5,1769235762.3822916,1
2.0,141.8,,,2151375.0,1769235762.440625,1
2.0,131.30666666666667,,,2151431.0,1769235762.4989583,1
2.0,96.825,0.362551,33.15,2150719.5,1769235762.5572917,1
2.0,55.4825,,,2144460.0,1769235762.615625,1
2.0,30.655,,,2134411.0,1769235762.6739583,1
2.0,-2.84,,,2124860.0,1769235762.7322917,1
2.0,-52.905,0.356146,33.15,2118482.0,1769235762.790625,1
2.0,-79.0725,,,2114491.0,1769235762.8489583,1
2.0,-124.8125,,,2111362.5,1769235762.9072917,1
2.0,-90.61999999999999,,,2108278.0,1769235762.965625,1
2.0,79.73,0.358708,33.15,2106525.5,1769235763.0239584,1
2.0,250.14500000000004,,,2105295.0,1769235763.0822916,1
2.0,345.08,,,2104824.0,1769235763.140625,1
2.0,333.52750000000003,,,2104320.0,1769235763.1989584,1
2.0,210.75500000000002,0.356146,33.15,2104567.0,1769235763.2572916,1
2.0,65.86749999999999,,,2100661.5,1769235763.315625,1
2.0,-25.953333333333333,,,2090643.0,1769235763.3739583,1
2.0,-174.8575,,,2082165.5,1769235763.4322917,1
2.0,-451.7375,,,2074655.0,1769235763.490625,1
2.0,-561.125,0.353584,33.15,2070484.0,1769235763.5489583,1
2.0,-431.83666666666664,,,2067721.0,1769235763.6072917,1
2.0,-320.98,,,2064725.0,1769235763.665625,1
2.0,-213.2875,,,2062624.0,1769235763.7239583,1
2.0,-72.30250000000001,0.352302,33.15,2062136.0,1769235763.7822917,1
2.0,81.87333333333333,,,2062277.0,1769235763.840625,1
2.0,207.3425,,,2063130.0,1769235763.8989584,1
2.0,228.475,,,2063214.0,1769235763.9572916,1
2.0,185.88666666666666,0.353584,33.15,2058454.0,1769235764.015625,1
2.0,160.2475,,,2050578.5,1769235764.0739584,1
2.0,128.1,,,2045482.0,1769235764.1322916,1
2.0,65.02250000000001,,,2043237.0,1769235764.190625,1
2.0,12.056666666666667,,,2042376.0,1769235764.2489583,1
2.0,-74.4,0.358708,33.13,2041114.5,1769235764.3072917,1
2.0,-103.4,,,2040792.0,1769235764.365625,1
2.0,41.04,,,2041478.0,1769235764.4239583,1
2.0,143.59,,,2042798.0,1769235764.4822917,1
2.0,171.1825,0.365113,33.13,2043805.0,1769235764.540625,1
2.0,142.0425,,,2045107.5,1769235764.5989583,1
2.0,104.9075,,,2040584.0,1769235764.6572917,1
2.0,94.68333333333334,,,2034200.5,1769235764.715625,1
2.0,73.31750000000001,0.358708,33.13,2029630.0,1769235764.7739584,1
2.0,28.7125,,,2027793.0,1769235764.8322916,1
2.0,-7.373333333333334,,,2028046.0,1769235764.890625,1
2.0,-81.2375,,,2028529.5,1769235764.9489584,1
2.0,-80.17,0.354865,33.13,2029497.0,1769235765.0072916,1
2.0,116.13749999999999,,,2031294.0,1769235765.065625,1
2.0,232.82666666666668,,,2033910.0,1769235765.1239583,1
2.0,242.395,,,2035850.0,1769235765.1822917,1
2.0,113.69500000000001,,,2039026.0,1769235765.240625,1
2.0,-40.35,0.353584,33.13,2040328.0,1769235765.2989583,1
2.0,5.946666666666668,,,2036358.5,1769235765.3572917,1
2.0,-16.075,,,2033028.0,1769235765.415625,1
2.0,-247.2525,,,2031052.0,1769235765.4739583,1
2.0,-359.27500000000003,0.353584,33.13,2030564.0,1769235765.5322917,1
2.0,-288.18666666666667,,,2031235.5,1769235765.590625,1
2.0,-264.36,,,2031572.0,1769235765.6489584,1
2.0,-228.0875,,,2033221.5,1769235765.7072916,1
2.0,-94.33,0.354865,33.13,2035196.0,1769235765.765625,1
2.0,75.035,,,2038602.5,1769235765.8239584,1
2.0,214.815,,,2042122.0,1769235765.8822916,1
2.0,205.78,,,2046701.0,1769235765.940625,1
2.0,140.72,,,2050890.0,1769235765.9989583,1
2.0,94.7525,0.357427,33.13,2050091.5,1769235766.0572917,1
2.0,72.7075,,,2048985.0,1769235766.115625,1
2.0,36.595,,,2049371.5,1769235766.1739583,1
2.0,3.453333333333333,,,2050848.0,1769235766.2322917,1
2.0,-34.44,0.359989,33.13,2053160.0,1769235766.290625,1
2.0,-124.0575,,,2055521.0,1769235766.3489583,1
2.0,-137.4975,,,2057849.0,1769235766.4072917,1
2.0,-5.2,,,2061203.5,1769235766.465625,1
2.0,98.2875,0.36127,33.13,2065017.0,1769235766.5239584,1
2.0,131.655,,,2068938.5,1769235766.5822916,1
2.0,114.29333333333334,,,2072707.0,1769235766.640625,1
2.0,83.1375,,,2073169.0,1769235766.6989584,1
2.0,67.84,0.356146,33.13,2072457.0,1769235766.7572916,1
2.0,49.9,,,2073452.5,1769235766.815625,1
2.0,30.05333333333333,,,2075166.0,1769235766.8739583,1
2.0,-9.8775,,,2077927.0,1769235766.9322917,1
2.0,-60.802499999999995,,,2080252.0,1769235766.990625,1
2.0,-11.857499999999998,0.353584,33.13,2081784.0,1769235767.0489583,1
2.0,129.10666666666665,,,2084219.5,1769235767.1072917,1
2.0,183.865,,,2087344.0,1769235767.165625,1
2.0,89.06,,,2090795.0,1769235767.2239583,1
2.0,-3.585,0.357427,33.13,2093841.0,1769235767.2822917,1
2.0,46.919999999999995,,,2093766.5,1769235767.340625,1
2.0,-29.142500000000002,,,2092597.0,1769235767.3989584,1
2.0,-259.57,,,2093047.0,1769235767.4572916,1
2.0,-348.92,0.358708,33.13,2093922.0,1769235767.515625,1
2.0,-263.1775,,,2096276.0,1769235767.5739584,1
2.0,-223.15749999999997,,,2098575.0,1769235767.6322916,1
2.0,-180.28750000000002,,,2100352.0,1769235767.690625,1
2.0,-22.87,,,2102983.5,1769235767.7489583,1
2.0,111.9975,0.356146,33.13,2106264.0,1769235767.8072917,1
2.0,161.44,,,2109181.5,1769235767.865625,1
2.0,142.36249999999998,,,2113248.0,1769235767.9239583,1
2.0,109.49,,,2116550.5,1769235767.9822917,1
2.0,81.72,0.352302,33.13,2117627.0,1769235768.040625,1
2.0,62.545,,,2116581.5,1769235768.0989583,1
2.0,15.49,,,2117222.0,1769235768.1572917,1
2.0,-25.533333333333335,,,2118028.0,1769235768.215625,1
2.0,-62.55499999999999,0.356146,33.15,2120041.0,1769235768.2739584,1
2.0,-127.63000000000001,,,2121897.0,1769235768.3322916,1
2.0,-107.37,,,2123858.0,1769235768.390625,1
2.0,11.4875,,,2125330.0,1769235768.4489584,1
2.0,94.7325,0.358708,33.15,2127750.5,1769235768.5072916,1
2.0,118.72749999999999,,,2130298.0,1769235768.565625,1
2.0,107.90666666666665,,,2132835.0,1769235768.6239583,1
2.0,99.7925,,,2135582.0,1769235768.6822917,1
2.0,89.80000000000001,,,2135052.0,1769235768.740625,1
2.0,88.185,0.354865,33.15,2133249.0,1769235768.7989583,1
2.0,70.6,,,2132749.5,1769235768.8572917,1
2.0,33.2125,,,2133130.0,1769235768.915625,1
2.0,25.3875,,,2134391.5,1769235768.9739583,1
2.0,-16.0925,0.353584,33.15,2135297.0,1769235769.0322917,1
2.0,-54.32333333333333,,,2136231.0,1769235769.090625,1
2.0,-9.2125,,,2137820.0,1769235769.1489584,1
2.0,-25.175,,,2139542.0,1769235769.2072916,1
2.0,-20.366666666666664,0.352302,33.15,2141820.5,1769235769.265625,1
2.0,63.05,,,2143637.0,1769235769.3239584,1
2.0,-65.89750000000001,,,2142547.0,1769235769.3822916,1
2.0,-247.83249999999998,,,2140282.0,1769235769.440625,1
2.0,-208.43666666666664,,,2139643.5,1769235769.4989583,1
2.0,-110.45,0.351021,33.15,2139814.0,1769235769.5572917,1
2.0,-83.3375,,,2140761.5,1769235769.615625,1
2.0,-98.48749999999998,,,2141301.0,1769235769.6739583,1
2.0,-118.12666666666667,,,2142520.5,1769235769.7322917,1
2.0,-43.4025,0.352302,33.15,2143883.0,1769235769.790625,1
2.0,95.4625,,,2145445.0,1769235769.8489583,1
2.0,140.41,,,2147442.0,1769235769.9072917,1
2.0,134.13,,,2149828.0,1769235769.965625,1
2.0,105.045,0.354865,33.15,2148270.0,1769235770.0239584,1
2.0,70.855,,,2144854.0,1769235770.0822916,1
2.0,43.04333333333333,,,2142868.5,1769235770.140625,1
2.0,6.107500000000002,,,2141452.0,1769235770.1989584,1
2.0,-32.1625,0.354865,33.15,2141175.0,1769235770.2572916,1
2.0,-83.01250000000002,,,2141742.0,1769235770.315625,1
2.0,-132.38333333333333,,,2141947.0,1769235770.3739583,1
2.0,-75.09,,,2142820.0,1769235770.4322917,1
2.0,46.7925,,,2143676.0,1769235770.490625,1
2.0,100.03999999999999,0.356146,33.15,2145633.5,1769235770.5489583,1
2.0,106.10333333333334,,,2147265.0,1769235770.6072917,1
2.0,87.8275,,,2148778.0,1769235770.665625,1
2.0,59.06999999999999,,,2146738.0,1769235770.7239583,1
2.0,50.462500000000006,0.357427,33.15,2142452.5,1769235770.7822917,1
2.0,38.07,,,2139270.0,1769235770.840625,1
2.0,-0.8574999999999999,,,2137428.5,1769235770.8989584,1
2.0,-34.0325,,,2137028.0,1769235770.9572916,1
2.0,-84.21333333333334,0.362551,33.15,2136922.0,1769235771.015625,1
2.0,-110.02749999999999,,,2136431.0,1769235771.0739584,1
2.0,-2.737499999999999,,,2136663.0,1769235771.1322916,1
2.0,104.3,,,2137268.5,1769235771.190625,1
2.0,149.09,,,2138300.0,1769235771.2489583,1
2.0,141.27249999999998,0.354865,33.13,2139486.0,1769235771.3072917,1
2.0,94.29499999999999,,,2140702.0,1769235771.365625,1
2.0,68.13,,,2138566.0,1769235771.4239583,1
2.0,46.99666666666666,,,2133134.0,1769235771.4822917,1
2.0,27.115000000000002,0.353584,33.13,2128757.5,1769235771.540625,1
2.0,-11.7425,,,2125780.0,1769235771.5989583,1
2.0,-61.61999999999999,,,2125051.0,1769235771.6572917,1
2.0,-95.05666666666666,,,2124722.0,1769235771.715625,1
2.0,-130.5725,0.356146,33.13,2123901.0,1769235771.7739584,1
2.0,-67.55499999999999,,,2123621.0,1769235771.8322916,1
2.0,97.48,,,2124453.0,1769235771.890625,1
2.0,186.285,,,2125104.5,1769235771.9489584,1
2.0,102.36250000000001,0.356146,33.13,2126141.0,1769235772.0072916,1
2.0,-105.1,,,2125753.0,1769235772.065625,1
2.0,-293.85,,,2120799.0,1769235772.1239583,1
2.0,-289.70750000000004,,,2115299.0,1769235772.1822917,1
2.0,-158.975,,,2111582.0,1769235772.240625,1
2.0,-109.5,0.352302,33.13,2110132.0,1769235772.2989583,1
2.0,-106.85333333333334,,,2109491.0,1769235772.3572917,1
2.0,-112.3975,,,2108249.5,1769235772.415625,1
2.0,-138.71499999999997,,,2108250.0,1769235772.4739583,1
2.0,-45.887499999999996,0.352302,33.13,2108720.0,1769235772.5322917,1
2.0,103.31,,,2109223.0,1769235772.590625,1
2.0,148.95,,,2110659.0,1769235772.6489584,1
2.0,135.98250000000002,,,2110867.5,1769235772.7072916,1
2.0,100.42333333333333,0.354865,33.13,2106368.0,1769235772.765625,1
2.0,76.795,,,2100944.0,1769235772.8239584,1
2.0,57.947500000000005,,,2096688.0,1769235772.8822916,1
2.0,16.782500000000002,,,2094613.5,1769235772.940625,1
2.0,-26.686666666666667,,,2094222.0,1769235772.9989583,1
2.0,-78.335,0.359989,33.13,2093627.0,1769235773.0572917,1
2.0,-145.82750000000001,,,2093186.0,1769235773.115625,1
2.0,-83.5775,,,2093796.0,1769235773.1739583,1
2.0,48.873333333333335,,,2095017.0,1769235773.2322917,1
2.0,111.25,0.363832,33.13,2096007.0,1769235773.290625,1
2.0,129.8175,,,2097746.5,1769235773.3489583,1
2.0,112.035,,,2097458.0,1769235773.4072917,1
2.0,84.63666666666667,,,2091400.5,1769235773.465625,1
2.0,77.25,0.358708,33.13,2086371.0,1769235773.5239584,1
2.0,64.64,,,2082744.5,1769235773.5822916,1
2.0,36.843333333333334,,,2081190.0,1769235773.640625,1
2.0,13.51,,,2080456.0,1769235773.6989584,1
2.0,-42.825,0.356146,33.13,2079360.0,1769235773.7572916,1
2.0,-47.53,,,2077834.0,1769235773.815625,1
2.0,53.526666666666664,,,2076059.0,1769235773.8739583,1
2.0,103.425,,,2075690.0,1769235773.9322917,1
2.0,129.2675,,,2075399.0,1769235773.990625,1
2.0,105.91749999999999,0.353584,33.13,2073573.0,1769235774.0489583,1
2.0,-50.77,,,2071648.5,1769235774.1072917,1
2.0,-254.5575,,,2067825.0,1769235774.165625,1
2.0,-292.3975,,,2061242.5,1769235774.2239583,1
2.0,-215.1925,0.353584,33.13,2057244.0,1769235774.2822917,1
2.0,-169.98999999999998,,,2055881.5,1769235774.340625,1
2.0,-143.3975,,,2055628.0,1769235774.3989584,1
2.0,-162.23000000000002,,,2056007.0,1769235774.4572916,1
2.0,-104.43,0.353584,33.13,2056839.5,1769235774.515625,1
2.0,46.1125,,,2058372.0,1769235774.5739584,1
2.0,152.77,,,2060192.0,1769235774.6322916,1
2.0,156.4025,,,2062657.0,1769235774.690625,1
2.0,118.98,,,2065711.0,1769235774.7489583,1
2.0,89.7375,0.354865,33.13,2067836.0,1769235774.8072917,1
2.0,72.7275,,,2065051.5,1769235774.865625,1
2.0,41.545,,,2062089.0,1769235774.9239583,1
2.0,0.6733333333333338,,,2060919.5,1769235774.9822917,1
2.0,-57.18,0.356146,33.13,2061151.0,1769235775.040625,1
2.0,-120.3875,,,2062641.0,1769235775.0989583,1
2.0,-47.642500000000005,,,2063839.0,1769235775.1572917,1
2.0,66.89666666666666,,,2064925.0,1769235775.215625,1
2.0,115.065,0.354865,33.11,2066980.5,1769235775.2739584,1
2.0,109.54499999999999,,,2069026.0,1769235775.3322916,1
2.0,70.83333333333333,,,2071521.5,1769235775.390625,1
2.0,51.8725,,,2074021.0,1769235775.4489584,1
2.0,26.865,0.353584,33.11,2071234.5,1769235775.5072916,1
2.0,-10.93,,,2067657.0,1769235775.565625,1
2.0,-64.60000000000001,,,2065216.5,1769235775.6239583,1
2.0,-135.7475,,,2063951.0,1769235775.6822917,1
2.0,-115.04500000000002,,,2064436.0,1769235775.740625,1
2.0,41.05,0.352302,33.11,2065141.0,1769235775.7989583,1
2.0,129.85,,,2065064.0,1769235775.8572917,1
2.0,158.7975,,,2066186.0,1769235775.915625,1
2.0,145.8725,,,2068135.0,1769235775.9739583,1
2.0,112.3275,0.357427,33.11,2069929.5,1769235776.0322917,1
2.0,92.32333333333334,,,2072393.0,1769235776.090625,1
2.0,62.837500000000006,,,2072335.5,1769235776.1489584,1
2.0,9.025,,,2069250.0,1769235776.2072916,1
2.0,-39.443333333333335,0.357427,33.11,2067360.0,1769235776.265625,1
2.0,-125.16,,,2066368.0,1769235776.3239584,1
2.0,-128.77249999999998,,,2067373.5,1769235776.3822916,1
2.0,15.275,,,2069061.0,1769235776.440625,1
2.0,79.86333333333333,,,2070115.0,1769235776.4989583,1
2.0,72.04,0.358708,33.11,2071839.5,1769235776.5572917,1
2.0,33.0175,,,2074574.0,1769235776.615625,1
2.0,-11.155,,,2077666.0,1769235776.6739583,1
2.0,-44.946666666666665,,,2081015.0,1769235776.7322917,1
2.0,-59.3675,0.354865,33.11,2084002.0,1769235776.790625,1
2.0,-102.94,,,2083469.0,1769235776.8489583,1
2.0,-169.6125,,,2082449.5,1769235776.9072917,1
2.0,-226.40666666666667,,,2082464.0,1769235776.965625,1
2.0,-267.3625,0.356146,33.11,2082710.0,1769235777.0239584,1
2.0,-166.21749999999997,,,2083883.0,1769235777.0822916,1
2.0,13.436666666666667,,,2084549.5,1769235777.140625,1
2.0,130.41500000000002,,,2085656.0,1769235777.1989584,1
2.0,156.2825,0.358708,33.13,2086332.0,1769235777.2572916,1
2.0,115.625,,,2088361.0,1769235777.315625,1
2.0,81.79333333333334,,,2090740.0,1769235777.3739583,1
2.0,58.7425,,,2092534.0,1769235777.4322917,1
2.0,23.884999999999998,,,2091264.0,1769235777.490625,1
2.0,-17.56,0.357427,33.13,2090566.0,1769235777.5489583,1
2.0,-76.66,,,2090219.0,1769235777.6072917,1
2.0,-117.61250000000001,,,2091248.0,1769235777.665625,1
2.0,-32.5175,,,2092521.0,1769235777.7239583,1
2.0,83.3425,0.358708,33.13,2093452.0,1769235777.7822917,1
2.0,121.03000000000002,,,2095236.0,1769235777.840625,1
2.0,99.6125,,,2096448.0,1769235777.8989584,1
2.0,51.114999999999995,,,2098662.0,1769235777.9572916,1
2.0,38.75333333333334,0.36127,33.13,2101051.0,1769235778.015625,1
2.0,25.76,,,2100182.5,1769235778.0739584,1
2.0,-0.8574999999999999,,,2098338.0,1769235778.1322916,1
2.0,-49.415000000000006,,,2097787.5,1769235778.190625,1
2.0,-111.44333333333333,,,2098369.0,1769235778.2489583,1
2.0,-84.5875,0.362551,33.13,2099930.5,1769235778.3072917,1
2.0,59.265,,,2101099.0,1769235778.365625,1
2.0,138.65249999999997,,,2103097.0,1769235778.4239583,1
2.0,156.39333333333335,,,2104803.0,1769235778.4822917,1
2.0,129.745,0.356146,33.13,2106747.5,1769235778.540625,1
2.0,104.8375,,,2109143.0,1769235778.5989583,1
2.0,84.48,,,2110427.0,1769235778.6572917,1
2.0,33.78666666666666,,,2108529.0,1769235778.715625,1
2.0,-32.9675,0.354865,33.13,2104897.0,1769235778.7739584,1
2.0,-119.0975,,,2101394.5,1769235778.8322916,1
2.0,-180.73666666666665,,,2098759.0,1769235778.890625,1
2.0,-65.33749999999999,,,2098788.0,1769235778.9489584,1
2.0,100.7325,0.357427,33.13,2098635.0,1769235779.0072916,1
2.0,30.139999999999993,,,2098591.5,1769235779.065625,1
2.0,-90.67666666666668,,,2096671.0,1769235779.1239583,1
2.0,-22.275000000000002,,,2104490.5,1769235779.1822917,1
2.0,-56.775000000000006,,,2112521.0,1769235779.240625,1
2.0,-200.3025,0.357427,33.13,2115287.0,1769235779.2989583,1
2.0,-224.35,,,2118045.0,1769235779.3572917,1
2.0,-159.35750000000002,,,2115857.0,1769235779.415625,1
2.0,-124.2425,,,2115432.0,1769235779.4739583,1
2.0,-153.71749999999997,0.353584,33.13,2118170.0,1769235779.5322917,1
2.0,-115.02666666666666,,,2123314.0,1769235779.590625,1
2.0,29.4825,,,2127991.0,1769235779.6489584,1
2.0,155.535,,,2131951.5,1769235779.7072916,1
2.0,179.91666666666666,0.353584,33.13,2136234.0,1769235779.765625,1
2.0,158.41250000000002,,,2141271.0,1769235779.8239584,1
2.0,118.875,,,2145493.0,1769235779.8822916,1
2.0,83.52000000000001,,,2150264.0,1769235779.940625,1
2.0,58.080000000000005,,,2152685.0,1769235779.9989583,1
2.0,19.080000000000002,0.353584,33.13,2153050.0,1769235780.0572917,1
2.0,-27.0325,,,2153922.0,1769235780.115625,1
2.0,-93.205,,,2155150.0,1769235780.1739583,1
2.0,-132.73000000000002,,,2156623.5,1769235780.2322917,1
2.0,-45.2075,0.359989,33.13,2157419.0,1769235780.290625,1
2.0,68.34,,,2157783.5,1769235780.3489583,1
2.0,102.69500000000001,,,2158746.0,1769235780.4072917,1
2.0,93.50999999999999,,,2160031.5,1769235780.465625,1
2.0,62.580000000000005,0.36127,33.13,2161373.0,1769235780.5239584,1
2.0,41.165000000000006,,,2161188.0,1769235780.5822916,1
2.0,24.71666666666667,,,2158308.0,1769235780.640625,1
2.0,5.3575,,,2155962.0,1769235780.6989584,1
2.0,-36.54,0.362551,33.13,2154040.0,1769235780.7572916,1
2.0,-99.13000000000001,,,2152846.0,1769235780.815625,1
2.0,-98.02666666666666,,,2153700.0,1769235780.8739583,1
2.0,18.5175,,,2154137.0,1769235780.9322917,1
2.0,128.8525,,,2153873.0,1769235780.990625,1
2.0,146.75,0.362551,33.13,2153955.0,1769235781.0489583,1
2.0,97.53666666666668,,,2154624.0,1769235781.1072917,1
2.0,68.0875,,,2155869.0,1769235781.165625,1
2.0,55.6625,,,2154784.0,1769235781.2239583,1
2.0,32.042500000000004,0.358708,33.13,2151426.0,1769235781.2822917,1
2.0,14.1,,,2148759.0,1769235781.340625,1
2.0,-50.17,,,2146442.0,1769235781.3989584,1
2.0,-136.13750000000002,,,2145756.0,1769235781.4572916,1
2.0,-45.92000000000001,0.358708,33.13,2145986.0,1769235781.515625,1
2.0,110.0025,,,2146577.0,1769235781.5739584,1
2.0,136.3075,,,2147414.0,1769235781.6322916,1
2.0,69.78999999999999,,,2148545.0,1769235781.690625,1
2.0,16.94,,,2150951.5,1769235781.7489583,1
2.0,-115.555,0.358708,33.13,2152812.0,1769235781.8072917,1
2.0,-358.235,,,2153550.0,1769235781.865625,1
2.0,-427.40250000000003,,,2150767.0,1769235781.9239583,1
2.0,-294.37333333333333,,,2146308.5,1769235781.9822917,1
2.0,-220.185,0.357427,33.13,2143142.0,1769235782.040625,1
2.0,-179.6275,,,2141367.0,1769235782.0989583,1
2.0,-36.47,,,2140370.5,1769235782.1572917,1
2.0,123.23,,,2139735.0,1769235782.215625,1
2.0,187.375,0.359989,33.09,2139279.0,1769235782.2739584,1
2.0,191.0225,,,2139651.0,1769235782.3322916,1
2.0,152.68666666666667,,,2141366.5,1769235782.390625,1
2.0,121.86000000000001,,,2143244.0,1769235782.4489584,1
2.0,91.435,0.357427,33.09,2144447.5,1769235782.5072916,1
2.0,36.6125,,,2143519.0,1769235782.565625,1
2.0,-13.856666666666667,,,2139983.0,1769235782.6239583,1
2.0,-86.22749999999999,,,2135791.0,1769235782.6822917,1
2.0,-121.605,,,2132778.0,1769235782.740625,1
2.0,-2.1899999999999977,0.36127,33.09,2131006.5,1769235782.7989583,1
2.0,93.74666666666667,,,2130251.0,1769235782.8572917,1
2.0,128.9675,,,2129292.5,1769235782.915625,1
2.0,129.04500000000002,,,2129001.0,1769235782.9739583,1
2.0,93.145,0.357427,33.09,2129346.0,1769235783.0322917,1
2.0,68.99000000000001,,,2130018.0,1769235783.090625,1
2.0,49.45,,,2130542.0,1769235783.1489584,1
2.0,13.0025,,,2128408.0,1769235783.2072916,1
2.0,-26.49333333333333,0.358708,33.13,2124049.0,1769235783.265625,1
2.0,-85.6275,,,2121173.0,1769235783.3239584,1
2.0,-111.065,,,2119266.0,1769235783.3822916,1
2.0,28.259999999999998,,,2118880.0,1769235783.440625,1
2.0,131.36333333333334,,,2118147.0,1769235783.4989583,1
2.0,105.865,0.358708,33.13,2117360.5,1769235783.5572917,1
2.0,45.575,,,2116494.0,1769235783.615625,1
2.0,60.2275,,,2114569.5,1769235783.6739583,1
2.0,-9.046666666666665,,,2114391.0,1769235783.7322917,1
2.0,-132.6975,0.357427,33.13,2112391.0,1769235783.790625,1
2.0,-162.52499999999998,,,2107093.0,1769235783.8489583,1
2.0,-150.4525,,,2102446.0,1769235783.9072917,1
2.0,-167.5533333333333,,,2098784.0,1769235783.965625,1
2.0,-100.21,0.357427,33.13,2096851.5,1769235784.0239584,1
2.0,46.92999999999999,,,2096158.0,1769235784.0822916,1
2.0,103.0,,,2095699.0,1769235784.140625,1
2.0,105.255,,,2095647.5,1769235784.1989584,1
2.0,69.615,0.357427,33.09,2096867.0,1769235784.2572916,1
2.0,51.065,,,2099413.5,1769235784.315625,1
2.0,31.419999999999998,,,2101591.0,1769235784.3739583,1
2.0,10.829999999999998,,,2100515.5,1769235784.4322917,1
2.0,-36.6125,,,2095922.0,1769235784.490625,1
2.0,-106.83749999999999,0.358708,33.09,2092160.0,1769235784.5489583,1
2.0,-90.69666666666667,,,2088674.0,1769235784.6072917,1
2.0,15.6125,,,2086864.5,1769235784.665625,1
2.0,87.9975,,,2086033.0,1769235784.7239583,1
2.0,97.06500000000001,0.363832,33.09,2085107.0,1769235784.7822917,1
2.0,73.47666666666666,,,2084348.0,1769235784.840625,1
2.0,51.7975,,,2084549.0,1769235784.8989584,1
2.0,33.572500000000005,,,2085642.5,1769235784.9572916,1
2.0,11.610000000000001,0.36127,33.09,2087534.0,1769235785.015625,1
2.0,-13.280000000000001,,,2086515.0,1769235785.0739584,1
2.0,-60.1525,,,2081340.0,1769235785.1322916,1
2.0,-97.4375,,,2076344.0,1769235785.190625,1
2.0,-25.25,,,2073135.0,1769235785.2489583,1
2.0,92.7575,0.363832,33.09,2072383.0,1769235785.3072917,1
2.0,150.04,,,2072299.0,1769235785.365625,1
2.0,143.71749999999997,,,2072605.0,1769235785.4239583,1
2.0,92.07333333333334,,,2072758.5,1769235785.4822917,1
2.0,40.8675,0.356146,33.09,2073952.0,1769235785.540625,1
2.0,27.167500000000004,,,2074785.0,1769235785.5989583,1
2.0,-49.715,,,2076307.0,1769235785.6572917,1
2.0,-137.23333333333335,,,2074840.5,1769235785.715625,1
2.0,-180.945,0.356146,33.09,2070456.0,1769235785.7739584,1
2.0,-198.82,,,2067316.0,1769235785.8322916,1
2.0,-128.82000000000002,,,2065515.0,1769235785.890625,1
2.0,-3.6949999999999985,,,2065722.0,1769235785.9489584,1
2.0,71.24000000000001,0.358708,33.09,2066670.0,1769235786.0072916,1
2.0,88.4425,,,2067375.0,1769235786.065625,1
2.0,77.21333333333332,,,2068102.0,1769235786.1239583,1
2.0,51.847500000000004,,,2069165.0,1769235786.1822917,1
2.0,35.545,,,2071447.0,1769235786.240625,1
2.0,17.57,0.359989,33.13,2073481.0,1769235786.2989583,1
2.0,-16.546666666666667,,,2070888.0,1769235786.3572917,1
2.0,-45.262499999999996,,,2068114.0,1769235786.415625,1
2.0,-99.925,,,2066437.5,1769235786.4739583,1
2.0,-99.69,0.359989,33.13,2066023.0,1769235786.5322917,1
2.0,-3.0833333333333335,,,2066231.0,1769235786.590625,1
2.0,67.41,,,2066466.5,1769235786.6489584,1
2.0,90.65,,,2067344.0,1769235786.7072916,1
2.0,80.82333333333334,0.358708,33.13,2069405.0,1769235786.765625,1
2.0,55.81999999999999,,,2071793.0,1769235786.8239584,1
2.0,40.95,,,2073455.5,1769235786.8822916,1
2.0,25.37,,,2072646.0,1769235786.940625,1
2.0,4.03,,,2070023.0,1769235786.9989583,1
2.0,-27.387499999999996,0.36127,33.13,2068915.0,1769235787.0572917,1
2.0,-74.97,,,2069041.0,1769235787.115625,1
2.0,-61.14,,,2070599.0,1769235787.1739583,1
2.0,33.45,,,2071956.0,1769235787.2322917,1
2.0,97.76750000000001,0.362551,33.09,2073370.0,1769235787.290625,1
2.0,112.65,,,2074515.0,1769235787.3489583,1
2.0,107.525,,,2076654.0,1769235787.4072917,1
2.0,101.25999999999999,,,2079186.0,1769235787.465625,1
2.0,81.23750000000001,0.362551,33.09,2080906.0,1769235787.5239584,1
2.0,39.7425,,,2079906.0,1769235787.5822916,1
2.0,0.43333333333333357,,,2078859.5,1769235787.640625,1
2.0,-41.935,,,2078164.0,1769235787.6989584,1
2.0,-124.25,0.359989,33.09,2078879.5,1769235787.7572916,1
2.0,-93.82,,,2080350.0,1769235787.815625,1
2.0,51.416666666666664,,,2082269.5,1769235787.8739583,1
2.0,38.8325,,,2084453.0,1769235787.9322917,1
2.0,-9.26,,,2086838.0,1769235787.990625,1
2.0,23.665,0.359989,33.09,2089419.0,1769235788.0489583,1
2.0,-117.87666666666667,,,2091187.0,1769235788.1072917,1
2.0,-249.91750000000002,,,2093646.5,1769235788.165625,1
2.0,-186.76749999999998,,,2093119.0,1769235788.2239583,1
2.0,-100.38,0.357427,33.11,2092322.5,1769235788.2822917,1
2.0,-79.73,,,2092718.0,1769235788.340625,1
2.0,-100.1925,,,2093699.0,1769235788.3989584,1
2.0,-120.39,,,2095877.0,1769235788.4572916,1
2.0,-44.50666666666667,0.356146,33.11,2098194.0,1769235788.515625,1
2.0,67.5275,,,2100531.0,1769235788.5739584,1
2.0,109.37000000000002,,,2103553.0,1769235788.6322916,1
2.0,107.25,,,2106658.0,1769235788.690625,1
2.0,84.37666666666667,,,2108464.0,1769235788.7489583,1
2.0,55.37,0.356146,33.11,2111428.0,1769235788.8072917,1
2.0,38.7175,,,2112803.0,1769235788.865625,1
2.0,5.385000000000001,,,2111739.5,1769235788.9239583,1
2.0,-32.916666666666664,,,2111638.0,1769235788.9822917,1
2.0,-72.0225,0.358708,33.11,2112404.0,1769235789.040625,1
2.0,-120.63499999999999,,,2114119.0,1769235789.0989583,1
2.0,-68.0575,,,2115850.0,1769235789.1572917,1
2.0,34.50666666666667,,,2117965.0,1769235789.215625,1
2.0,86.10249999999999,0.36127,33.11,2119926.0,1769235789.2739584,1
2.0,101.6325,,,2122573.0,1769235789.3322916,1
2.0,90.91666666666667,,,2124982.5,1769235789.390625,1
2.0,71.945,,,2127339.0,1769235789.4489584,1
2.0,59.1025,0.356146,33.11,2127300.0,1769235789.5072916,1
2.0,40.3075,,,2125971.0,1769235789.565625,1
2.0,6.909999999999999,,,2125983.0,1769235789.6239583,1
2.0,-18.752499999999998,,,2126667.5,1769235789.6822917,1
2.0,-69.8775,,,2128268.0,1769235789.740625,1
2.0,-76.85249999999999,0.354865,33.11,2129467.0,1769235789.7989583,1
2.0,18.069999999999997,,,2130885.0,1769235789.8572917,1
2.0,95.595,,,2133023.0,1769235789.915625,1
2.0,133.6175,,,2135626.0,1769235789.9739583,1
2.0,106.32249999999999,0.354865,33.11,2138618.5,1769235790.0322917,1
2.0,33.76333333333333,,,2140453.0,1769235790.090625,1
2.0,-7.067500000000001,,,2138751.0,1769235790.1489584,1
2.0,-32.9975,,,2135744.5,1769235790.2072916,1
2.0,-66.96666666666667,0.356146,33.09,2134947.0,1769235790.265625,1
2.0,-107.4925,,,2135186.0,1769235790.3239584,1
2.0,-159.1325,,,2136838.0,1769235790.3822916,1
2.0,-149.475,,,2138717.0,1769235790.440625,1
2.0,-28.846666666666664,,,2140591.0,1769235790.4989583,1
2.0,65.28999999999999,0.357427,33.09,2143447.5,1769235790.5572917,1
2.0,92.08,,,2146852.0,1769235790.615625,1
2.0,68.23,,,2149423.0,1769235790.6739583,1
2.0,44.73,,,2152151.0,1769235790.7322917,1
2.0,33.552499999999995,0.359989,33.09,2152706.0,1769235790.790625,1
2.0,8.7025,,,2151701.5,1769235790.8489583,1
2.0,-26.1725,,,2150912.0,1769235790.9072917,1
2.0,-77.23333333333333,,,2150623.0,1769235790.965625,1
2.0,-134.01999999999998,0.357427,33.09,2151126.0,1769235791.0239584,1
2.0,-89.87,,,2152410.5,1769235791.0822916,1
2.0,25.263333333333332,,,2153220.0,1769235791.140625,1
2.0,84.2375,,,2154232.0,1769235791.1989584,1
2.0,99.775,0.358708,33.09,2155922.0,1769235791.2572916,1
2.0,69.215,,,2157734.5,1769235791.315625,1
2.0,44.776666666666664,,,2159294.0,1769235791.3739583,1
2.0,24.342499999999998,,,2160454.0,1769235791.4322917,1
2.0,-6.7925,,,2158404.0,1769235791.490625,1
2.0,-44.349999999999994,0.357427,33.09,2157022.0,1769235791.5489583,1
2.0,-103.32333333333334,,,2155968.5,1769235791.6072917,1
2.0,-133.9475,,,2155986.0,1769235791.665625,1
2.0,-30.687499999999996,,,2156595.0,1769235791.7239583,1
2.0,88.5925,0.359989,33.09,2157419.0,1769235791.7822917,1
2.0,139.15333333333334,,,2158193.5,1769235791.840625,1
2.0,146.10750000000002,,,2159377.0,1769235791.8989584,1
2.0,121.13500000000002,,,2160768.0,1769235791.9572916,1
2.0,103.78666666666668,0.359989,33.09,2162106.0,1769235792.015625,1
2.0,87.16,,,2163753.0,1769235792.0739584,1
2.0,54.2775,,,2162773.0,1769235792.1322916,1
2.0,-51.5625,,,2160552.0,1769235792.190625,1
2.0,-198.63666666666668,,,2158227.5,1769235792.2489583,1
2.0,-217.64749999999998,0.358708,33.11,2156336.0,1769235792.3072917,1
2.0,-69.96249999999999,,,2155638.0,1769235792.365625,1
2.0,17.505,,,2154023.0,1769235792.4239583,1
2.0,50.75666666666667,,,2149449.5,1769235792.4822917,1
2.0,69.0375,0.358708,33.11,2152478.0,1769235792.540625,1
2.0,-53.25749999999999,,,2163370.0,1769235792.5989583,1
2.0,-150.2775,,,2167890.0,1769235792.6572917,1
2.0,-137.42999999999998,,,2168206.0,1769235792.715625,1
2.0,-91.9775,0.368957,33.11,2165019.0,1769235792.7739584,1
2.0,-100.5425,,,2161954.0,1769235792.8322916,1
2.0,-138.31000000000003,,,2159926.5,1769235792.890625,1
2.0,-70.72500000000001,,,2160374.0,1769235792.9489584,1
2.0,68.035,0.357427,33.11,2161452.5,1769235793.0072916,1
2.0,129.975,,,2162701.0,1769235793.065625,1
2.0,118.71666666666665,,,2163957.5,1769235793.1239583,1
2.0,82.9675,,,2165060.0,1769235793.1822917,1
2.0,58.4825,,,2166504.5,1769235793.240625,1
2.0,30.1725,0.357427,33.09,2168197.0,1769235793.2989583,1
2.0,7.533333333333334,,,2168717.0,1769235793.3572917,1
2.0,-52.315,,,2166118.0,1769235793.415625,1
2.0,-136.0875,,,2163165.5,1769235793.4739583,1
2.0,-95.055,0.36127,33.09,2161366.0,1769235793.5322917,1
2.0,21.19333333333333,,,2160523.0,1769235793.590625,1
2.0,87.8125,,,2159926.0,1769235793.6489584,1
2.0,106.765,,,2159713.0,1769235793.7072916,1
2.0,79.39999999999999,0.362551,33.09,2159526.5,1769235793.765625,1
2.0,54.745000000000005,,,2160234.0,1769235793.8239584,1
2.0,27.4425,,,2161176.5,1769235793.8822916,1
2.0,2.9725,,,2162419.0,1769235793.940625,1
2.0,-30.046666666666663,,,2160624.5,1769235793.9989583,1
2.0,-89.77250000000001,0.358708,33.09,2155434.0,1769235794.0572917,1
2.0,-93.0125,,,2151047.0,1769235794.115625,1
2.0,33.4375,,,2147994.0,1769235794.1739583,1
2.0,145.24666666666667,,,2147075.0,1769235794.2322917,1
2.0,199.7875,0.356146,33.09,2145711.0,1769235794.290625,1
2.0,188.41,,,2144337.0,1769235794.3489583,1
2.0,128.5875,,,2143965.0,1769235794.4072917,1
2.0,-2.9233333333333342,,,2143992.0,1769235794.465625,1
2.0,-95.9425,0.356146,33.09,2144493.0,1769235794.5239584,1
2.0,-5.8725,,,2145357.0,1769235794.5822916,1
2.0,-51.413333333333334,,,2141538.5,1769235794.640625,1
2.0,-282.195,,,2135902.0,1769235794.6989584,1
2.0,-392.58000000000004,0.362551,33.09,2131630.0,1769235794.7572916,1
2.0,-221.9025,,,2128975.0,1769235794.815625,1
2.0,-47.620000000000005,,,2128271.0,1769235794.8739583,1
2.0,83.22,,,2127409.5,1769235794.9322917,1
2.0,127.48500000000001,,,2126168.0,1769235794.990625,1
2.0,103.33500000000001,0.36127,33.09,2125501.5,1769235795.0489583,1
2.0,81.73333333333333,,,2125826.0,1769235795.1072917,1
2.0,67.805,,,2126554.5,1769235795.165625,1
2.0,27.425000000000004,,,2126704.0,1769235795.2239583,1
2.0,-12.455,0.365113,33.09,2121691.0,1769235795.2822917,1
2.0,-64.81333333333333,,,2116535.0,1769235795.340625,1
2.0,-117.1,,,2112322.5,1769235795.3989584,1
2.0,-55.0475,,,2110035.0,1769235795.4572916,1
2.0,45.73999999999999,0.363832,33.09,2108876.0,1769235795.515625,1
2.0,98.075,,,2107116.0,1769235795.5739584,1
2.0,101.88750000000002,,,2106625.0,1769235795.6322916,1
2.0,71.755,,,2105717.0,1769235795.690625,1
2.0,55.70000000000001,,,2105730.0,1769235795.7489583,1
2.0,37.4025,0.36127,33.09,2105422.5,1769235795.8072917,1
2.0,8.0875,,,2101235.0,1769235795.865625,1
2.0,-35.0325,,,2094365.5,1769235795.9239583,1
2.0,-87.03333333333335,,,2088554.0,1769235795.9822917,1
2.0,-89.02000000000001,0.362551,33.09,2084753.5,1769235796.040625,1
2.0,19.270000000000003,,,2082640.0,1769235796.0989583,1
2.0,117.4325,,,2080847.0,1769235796.1572917,1
2.0,154.0633333333333,,,2079047.0,1769235796.215625,1
2.0,144.02,0.362551,33.09,2078621.5,1769235796.2739584,1
2.0,117.585,,,2078733.0,1769235796.3322916,1
2.0,98.98666666666668,,,2078868.0,1769235796.390625,1
2.0,76.215,,,2076529.5,1769235796.4489584,1
2.0,28.200000000000003,0.36127,33.09,2069605.0,1769235796.5072916,1
2.0,-36.2275,,,2063175.5,1769235796.565625,1
2.0,-66.19333333333333,,,2058146.0,1769235796.6239583,1
2.0,-29.2975,,,2055832.5,1769235796.6822917,1
2.0,63.11750000000001,,,2054646.0,1769235796.740625,1
2.0,77.685,0.362551,33.09,2053393.5,1769235796.7989583,1
2.0,10.126666666666667,,,2052562.0,1769235796.8572917,1
2.0,-36.9225,,,2053834.5,1769235796.915625,1
2.0,-40.14,,,2055031.0,1769235796.9739583,1
2.0,-137.91,0.359989,33.09,2056393.0,1769235797.0322917,1
2.0,-192.20333333333335,,,2055327.0,1769235797.090625,1
2.0,-167.01749999999998,,,2050421.0,1769235797.1489584,1
2.0,-142.72,,,2046810.5,1769235797.2072916,1
2.0,-156.23333333333332,0.36127,33.09,2044271.0,1769235797.265625,1
2.0,-72.23749999999998,,,2043640.5,1769235797.3239584,1
2.0,61.49000000000001,,,2043981.0,1769235797.3822916,1
2.0,117.0175,,,2044127.0,1769235797.440625,1
2.0,124.17666666666666,,,2044692.0,1769235797.4989583,1
2.0,88.9525,0.358708,33.09,2046155.5,1769235797.5572917,1
2.0,47.4325,,,2047709.0,1769235797.615625,1
2.0,24.33,,,2048890.0,1769235797.6739583,1
2.0,-0.8666666666666671,,,2050023.0,1769235797.7322917,1
2.0,-37.587500000000006,0.358708,33.09,2047121.0,1769235797.790625,1
2.0,-93.06,,,2043702.5,1769235797.8489583,1
2.0,-124.69749999999999,,,2041239.0,1769235797.9072917,1
2.0,-48.379999999999995,,,2040494.0,1769235797.965625,1
2.0,40.7975,0.36127,33.09,2041120.0,1769235798.0239584,1
2.0,83.59,,,2041930.0,1769235798.0822916,1
2.0,84.76333333333334,,,2042694.0,1769235798.140625,1
2.0,59.220000000000006,,,2044285.0,1769235798.1989584,1
2.0,38.89,0.363832,33.09,2046713.0,1769235798.2572916,1
2.0,20.89,,,2048962.0,1769235798.315625,1
2.0,1.18,,,2048510.0,1769235798.3739583,1
2.0,-30.06,,,2046217.0,1769235798.4322917,1
2.0,-82.8125,,,2045057.0,1769235798.490625,1
2.0,-66.82249999999999,0.36127,33.09,2045494.5,1769235798.5489583,1
2.0,22.59,,,2047011.0,1769235798.6072917,1
2.0,75.845,,,2047972.0,1769235798.665625,1
2.0,79.72,,,2049708.5,1769235798.7239583,1
2.0,46.4175,0.36127,33.09,2051694.0,1769235798.7822917,1
2.0,24.939999999999998,,,2054020.0,1769235798.840625,1
2.0,13.389999999999999,,,2056789.0,1769235798.8989584,1
2.0,-7.9675,,,2057496.5,1769235798.9572916,1
2.0,-38.053333333333335,0.359989,33.09,2055284.0,1769235799.015625,1
2.0,-86.455,,,2053955.5,1769235799.0739584,1
2.0,-117.35000000000001,,,2053561.0,1769235799.1322916,1
2.0,-36.67,,,2055860.5,1769235799.190625,1
2.0,45.95333333333334,,,2058138.0,1769235799.2489583,1
2.0,72.86250000000001,0.359989,33.09,2059378.0,1769235799.3072917,1
2.0,60.352500000000006,,,2062088.0,1769235799.365625,1
2.0,29.8225,,,2065186.0,1769235799.4239583,1
2.0,17.423333333333332,,,2068099.5,1769235799.4822917,1
2.0,-0.875,0.362551,33.09,2072198.0,1769235799.540625,1
2.0,-23.07,,,2074233.0,1769235799.5989583,1
2.0,-65.5425,,,2073603.0,1769235799.6572917,1
2.0,-116.98,,,2073708.0,1769235799.715625,1
2.0,-103.3675,0.363832,33.09,2074614.0,1769235799.7739584,1
2.0,4.25,,,2076542.5,1769235799.8322916,1
2.0,65.25666666666667,,,2079297.0,1769235799.890625,1
2.0,87.8075,,,2080906.0,1769235799.9489584,1
2.0,73.385,0.365113,33.09,2083593.0,1769235800.0072916,1
2.0,42.19499999999999,,,2086940.0,1769235800.065625,1
2.0,24.02,,,2090397.0,1769235800.1239583,1
2.0,5.4175,,,2094265.0,1769235800.1822917,1
2.0,-22.104999999999997,,,2096238.5,1769235800.240625,1
2.0,-66.08250000000001,0.362551,33.09,2095820.0,1769235800.2989583,1
2.0,-103.43666666666667,,,2096265.5,1769235800.3572917,1
2.0,-45.6275,,,2096701.0,1769235800.415625,1
2.0,76.42999999999999,,,2098484.0,1769235800.4739583,1
2.0,140.245,0.36127,33.09,2100640.0,1769235800.5322917,1
2.0,146.84,,,2103096.0,1769235800.590625,1
2.0,104.45749999999998,,,2106230.0,1769235800.6489584,1
2.0,67.41,,,2108735.0,1769235800.7072916,1
2.0,14.59666666666667,0.362551,33.09,2112025.0,1769235800.765625,1
2.0,-23.1025,,,2114909.0,1769235800.8239584,1
2.0,-34.9125,,,2115145.0,1769235800.8822916,1
2.0,-133.77,,,2114184.0,1769235800.940625,1
2.0,-188.13666666666668,,,2113954.0,1769235800.9989583,1
2.0,-70.66499999999999,0.365113,33.09,2113668.0,1769235801.0572917,1
2.0,-44.2825,,,2111983.0,1769235801.115625,1
2.0,-89.6775,,,2109392.0,1769235801.1739583,1
2.0,-58.92000000000001,,,2112741.0,1769235801.2322917,1
2.0,-15.257500000000002,0.365113,33.09,2119578.0,1769235801.290625,1
2.0,-17.995,,,2122393.0,1769235801.3489583,1
2.0,-18.5675,,,2124656.0,1769235801.4072917,1
2.0,-21.47666666666667,,,2124235.0,1769235801.465625,1
2.0,-45.555,0.366395,33.09,2123529.5,1769235801.5239584,1
2.0,-85.215,,,2127009.0,1769235801.5822916,1
2.0,-91.98,,,2130636.0,1769235801.640625,1
2.0,-4.2225,,,2134212.0,1769235801.6989584,1
2.0,87.46000000000001,0.363832,33.09,2137646.5,1769235801.7572916,1
2.0,115.035,,,2141161.0,1769235801.815625,1
2.0,88.02666666666666,,,2144515.5,1769235801.8739583,1
2.0,54.207499999999996,,,2147979.0,1769235801.9322917,1
2.0,28.367500000000003,,,2151335.0,1769235801.990625,1
2.0,0.585,0.363832,33.09,2154372.0,1769235802.0489583,1
2.0,-29.093333333333334,,,2154264.0,1769235802.1072917,1
2.0,-88.315,,,2153680.5,1769235802.165625,1
2.0,-119.27250000000001,,,2153904.0,1769235802.2239583,1
2.0,-21.215000000000003,0.366395,33.09,2154540.5,1769235802.2822917,1
2.0,67.18333333333334,,,2156450.0,1769235802.340625,1
2.0,107.1275,,,2158401.0,1769235802.3989584,1
2.0,108.1975,,,2160381.0,1769235802.4572916,1
2.0,80.48,0.368957,33.09,2162673.0,1769235802.515625,1
2.0,62.38250000000001,,,2164882.0,1769235802.5739584,1
2.0,41.589999999999996,,,2166954.0,1769235802.6322916,1
2.0,20.735,,,2167637.0,1769235802.690625,1
2.0,-17.810000000000002,,,2166240.0,1769235802.7489583,1
2.0,-77.5,0.365113,33.09,2164582.0,1769235802.8072917,1
2.0,-52.28,,,2163528.0,1769235802.865625,1
2.0,79.2,,,2163473.5,1769235802.9239583,1
2.0,148.68666666666667,,,2164113.0,1769235802.9822917,1
2.0,184.85750000000002,0.363832,33.09,2164941.5,1769235803.040625,1
2.0,181.7725,,,2165918.0,1769235803.0989583,1
2.0,162.3775,,,2167371.0,1769235803.1572917,1
2.0,150.28666666666666,,,2168599.0,1769235803.215625,1
2.0,119.675,0.36127,33.07,2170635.0,1769235803.2739584,1
2.0,36.037499999999994,,,2170317.0,1769235803.3322916,1
2.0,-82.90666666666667,,,2168460.0,1769235803.390625,1
2.0,-216.255,,,2165748.0,1769235803.4489584,1
2.0,-225.90999999999997,0.36127,33.07,2164183.0,1769235803.5072916,1
2.0,-76.67999999999999,,,2164006.5,1769235803.565625,1
2.0,-22.58666666666667,,,2164915.0,1769235803.6239583,1
2.0,-81.2175,,,2165200.0,1769235803.6822917,1
2.0,-69.9675,,,2165845.0,1769235803.740625,1
2.0,40.3225,0.363832,33.07,2167168.5,1769235803.7989583,1
2.0,-47.576666666666675,,,2167892.0,1769235803.8572917,1
2.0,-252.3675,,,2168650.0,1769235803.915625,1
2.0,-461.1575,,,2166000.0,1769235803.9739583,1
2.0,-387.2125,0.365113,33.07,2162008.0,1769235804.0322917,1
2.0,-234.4433333333333,,,2159299.0,1769235804.090625,1
2.0,-69.89750000000001,,,2157998.0,1769235804.1489584,1
2.0,110.83250000000001,,,2157129.5,1769235804.2072916,1
2.0,193.40333333333334,0.363832,33.09,2156532.0,1769235804.265625,1
2.0,167.28499999999997,,,2155598.0,1769235804.3239584,1
2.0,127.4675,,,2155282.0,1769235804.3822916,1
2.0,101.47749999999999,,,2155463.5,1769235804.440625,1
2.0,57.836666666666666,,,2156192.0,1769235804.4989583,1
2.0,7.225,0.362551,33.09,2154006.0,1769235804.5572917,1
2.0,-73.4575,,,2148677.0,1769235804.615625,1
2.0,-83.875,,,2144335.5,1769235804.6739583,1
2.0,28.733333333333334,,,2140159.0,1769235804.7322917,1
2.0,112.6,0.36127,33.09,2138806.0,1769235804.790625,1
2.0,143.9975,,,2137665.0,1769235804.8489583,1
2.0,129.0775,,,2136629.0,1769235804.9072917,1
2.0,97.02999999999999,,,2135831.0,1769235804.965625,1
2.0,73.91499999999999,0.363832,33.09,2135348.0,1769235805.0239584,1
2.0,55.74,,,2135219.0,1769235805.0822916,1
2.0,23.810000000000002,,,2135487.0,1769235805.140625,1
2.0,-8.7325,,,2131461.5,1769235805.1989584,1
2.0,-59.5425,0.365113,33.07,2126124.0,1769235805.2572916,1
2.0,-70.05000000000001,,,2121912.5,1769235805.315625,1
2.0,61.343333333333334,,,2119540.0,1769235805.3739583,1
2.0,199.1175,,,2119178.0,1769235805.4322917,1
2.0,229.075,,,2118658.5,1769235805.490625,1
