ID,empatica_bvp,empatica_eda,empatica_temp,samsung_bvp,time,CL
8.0,-25.991111111111113,0.204976,34.65,2223433.25,1600927960.14,1
8.0,-64.80888888888887,0.203695,34.65,2209301.6666666665,1600927960.28,1
8.0,25.56888888888889,,,2211995.25,1600927960.42,1
8.0,40.778888888888886,0.206257,34.65,2234914.3333333335,1600927960.56,1
8.0,7.161111111111111,,,2261512.0,1600927960.7,1
8.0,-22.314444444444444,0.203695,34.65,2270545.0,1600927960.84,1
8.0,-42.80444444444444,,,2246892.5,1600927960.98,1
8.0,-5.3744444444444435,0.204976,34.65,2234513.0,1600927961.12,1
8.0,61.43333333333333,0.201133,34.66,2233495.25,1600927961.26,1
8.0,-40.27666666666667,,,2239915.6666666665,1600927961.4,1
8.0,-121.43666666666667,0.19857,34.66,2249917.75,1600927961.54,1
8.0,-47.99777777777778,,,2264606.3333333335,1600927961.68,1
8.0,-15.784444444444444,0.203695,34.66,2270768.25,1600927961.82,1
8.0,-80.69333333333333,,,2260443.6666666665,1600927961.96,1
8.0,-199.49777777777777,0.206257,34.66,2264816.5,1600927962.1,1
8.0,-172.1388888888889,,,2273035.0,1600927962.24,1
8.0,121.28333333333333,0.208819,34.63,2284897.75,1600927962.38,1
8.0,340.4144444444445,0.208819,34.63,2296707.6666666665,1600927962.52,1
8.0,192.6622222222222,,,2311265.75,1600927962.66,1
8.0,78.72999999999999,0.207538,34.63,2322275.3333333335,1600927962.8,1
8.0,17.27888888888889,,,2306834.0,1600927962.94,1
8.0,-22.103333333333335,0.207538,34.63,2299849.3333333335,1600927963.08,1
8.0,-85.19999999999999,,,2301847.0,1600927963.22,1
8.0,-109.13777777777779,0.204976,34.66,2307950.0,1600927963.36,1
8.0,-19.8175,,,2313036.0,1600927963.5,1
8.0,-24.927777777777777,0.204976,34.66,2319193.0,1600927963.64,1
8.0,-66.33777777777779,0.204976,34.66,2324434.25,1600927963.78,1
8.0,-130.63222222222223,,,2311165.0,1600927963.92,1
8.0,-75.86777777777779,0.206257,34.66,2303342.0,1600927964.06,1
8.0,-37.86,,,2301463.0,1600927964.2,1
8.0,48.29777777777778,0.207538,34.63,2303963.75,1600927964.34,1
8.0,162.41999999999996,,,2308510.6666666665,1600927964.48,1
8.0,198.5111111111111,0.208819,34.63,2313307.25,1600927964.62,1
8.0,190.75333333333333,0.2101,34.63,2315910.6666666665,1600927964.76,1
8.0,87.07555555555555,,,2299939.5,1600927964.9,1
8.0,2.2066666666666674,0.2101,34.63,2279099.3333333335,1600927965.04,1
8.0,-42.708888888888886,,,2276780.0,1600927965.18,1
8.0,30.99777777777778,0.2101,34.63,2276830.6666666665,1600927965.32,1
8.0,17.572222222222223,,,2283988.5,1600927965.46,1
8.0,-25.95888888888889,0.204976,34.63,2293212.0,1600927965.6,1
8.0,-59.091111111111104,,,2304366.75,1600927965.74,1
8.0,-65.37555555555556,0.204976,34.63,2301978.0,1600927965.88,1
8.0,-71.89333333333333,0.202414,34.63,2293888.5,1600927966.02,1
8.0,21.555555555555557,,,2294440.6666666665,1600927966.16,1
8.0,20.905555555555555,0.207538,34.61,2297852.25,1600927966.3,1
8.0,18.058888888888887,,,2302726.3333333335,1600927966.44,1
8.0,-11.746666666666666,0.204976,34.61,2301698.75,1600927966.58,1
8.0,-51.44111111111111,,,2301527.3333333335,1600927966.72,1
8.0,-20.92222222222222,0.206257,34.61,2288281.25,1600927966.86,1
8.0,34.485,,,2277994.3333333335,1600927967.0,1
8.0,27.144444444444442,0.204976,34.61,2273417.75,1600927967.14,1
8.0,-19.85111111111111,0.208819,34.65,2272788.0,1600927967.28,1
8.0,-71.70555555555555,,,2276175.0,1600927967.42,1
8.0,-75.46555555555557,0.206257,34.65,2283179.6666666665,1600927967.56,1
8.0,18.263333333333335,,,2285242.75,1600927967.7,1
8.0,33.97111111111111,0.206257,34.65,2282747.0,1600927967.84,1
8.0,37.77666666666667,,,2286476.75,1600927967.98,1
8.0,28.21333333333333,0.204976,34.65,2290678.0,1600927968.12,1
8.0,-36.10444444444444,0.204976,34.63,2298298.75,1600927968.26,1
8.0,-13.03,,,2305685.6666666665,1600927968.4,1
8.0,33.34111111111111,0.206257,34.63,2308781.0,1600927968.54,1
8.0,42.14555555555555,,,2303241.25,1600927968.68,1
8.0,19.596666666666668,0.208819,34.63,2305137.3333333335,1600927968.82,1
8.0,-21.33111111111111,,,2307467.5,1600927968.96,1
8.0,-69.88888888888889,0.203695,34.63,2312582.6666666665,1600927969.1,1
8.0,-21.46,,,2318770.5,1600927969.24,1
8.0,10.733333333333333,0.202414,34.65,2317243.3333333335,1600927969.38,1
8.0,13.153333333333332,0.204976,34.65,2313438.75,1600927969.52,1
8.0,-2.283333333333333,,,2314610.6666666665,1600927969.66,1
8.0,-27.97222222222222,0.203695,34.65,2314841.25,1600927969.8,1
8.0,-59.861111111111114,,,2314672.0,1600927969.94,1
8.0,12.116666666666665,0.204976,34.65,2313804.0,1600927970.08,1
8.0,52.48555555555556,,,2307906.3333333335,1600927970.22,1
8.0,13.852222222222222,0.207538,34.65,2306443.5,1600927970.36,1
8.0,-10.708749999999998,,,2306453.0,1600927970.5,1
8.0,-10.702222222222222,0.208819,34.65,2309884.75,1600927970.64,1
8.0,-43.53111111111111,0.211381,34.65,2315332.0,1600927970.78,1
8.0,-46.387777777777785,,,2313633.25,1600927970.92,1
8.0,27.119999999999997,0.212663,34.65,2311685.3333333335,1600927971.06,1
8.0,33.63666666666667,,,2313757.5,1600927971.2,1
8.0,30.261111111111113,0.213944,34.65,2317295.0,1600927971.34,1
8.0,2.9188888888888886,,,2321379.0,1600927971.48,1
8.0,-28.962222222222223,0.2101,34.65,2324967.3333333335,1600927971.62,1
8.0,-65.16444444444443,0.2101,34.65,2319924.5,1600927971.76,1
8.0,1.5011111111111124,,,2317472.6666666665,1600927971.9,1
8.0,54.03333333333333,0.2101,34.65,2318289.0,1600927972.04,1
8.0,53.06111111111111,,,2321578.6666666665,1600927972.18,1
8.0,31.77666666666666,0.2101,34.65,2324991.0,1600927972.32,1
8.0,-7.504444444444443,,,2326940.3333333335,1600927972.46,1
8.0,-52.96777777777778,0.211381,34.65,2316388.25,1600927972.6,1
8.0,-82.76888888888888,,,2306937.0,1600927972.74,1
8.0,20.00111111111111,0.208819,34.65,2308065.75,1600927972.88,1
8.0,32.81444444444445,0.2101,34.65,2310825.6666666665,1600927973.02,1
8.0,27.41444444444444,,,2315722.0,1600927973.16,1
8.0,11.54888888888889,0.2101,34.66,2321866.3333333335,1600927973.3,1
8.0,-15.72888888888889,,,2318862.75,1600927973.44,1
8.0,-59.85555555555556,0.208819,34.66,2309271.6666666665,1600927973.58,1
8.0,-7.972222222222222,,,2308664.3333333335,1600927973.72,1
8.0,44.55222222222222,0.208819,34.66,2311000.6666666665,1600927973.86,1
8.0,54.31,,,2315745.75,1600927974.0,1
8.0,39.70111111111111,0.207538,34.66,2320600.0,1600927974.14,1
8.0,-19.299999999999997,0.206257,34.65,2325497.5,1600927974.28,1
8.0,-63.330000000000005,,,2314010.0,1600927974.42,1
8.0,-89.16555555555556,0.203695,34.65,2300206.5,1600927974.56,1
8.0,18.562222222222225,,,2295070.6666666665,1600927974.7,1
8.0,63.775555555555556,0.204976,34.65,2293477.5,1600927974.84,1
8.0,63.43,,,2297187.6666666665,1600927974.98,1
8.0,11.242222222222223,0.208819,34.65,2302940.75,1600927975.12,1
8.0,-26.518888888888892,0.211381,34.65,2306403.25,1600927975.26,1
8.0,-53.567777777777785,,,2292267.0,1600927975.4,1
8.0,-6.255555555555556,0.208819,34.65,2285326.6666666665,1600927975.54,1
8.0,88.33555555555556,,,2285588.25,1600927975.68,1
8.0,59.772222222222226,0.207538,34.65,2299246.5,1600927975.82,1
8.0,42.17444444444445,,,2308340.3333333335,1600927975.96,1
8.0,-29.887777777777778,0.2101,34.65,2316642.75,1600927976.1,1
8.0,-86.0311111111111,,,2306927.0,1600927976.24,1
8.0,-98.43444444444445,0.211381,34.65,2294614.0,1600927976.38,1
8.0,26.387777777777774,0.213944,34.65,2290879.0,1600927976.52,1
8.0,104.36111111111111,,,2290766.0,1600927976.66,1
8.0,64.01777777777778,0.215225,34.65,2299761.5,1600927976.8,1
8.0,4.091111111111111,,,2311520.75,1600927976.94,1
8.0,-36.599999999999994,0.213944,34.65,2314578.6666666665,1600927977.08,1
8.0,-75.38222222222221,,,2298383.6666666665,1600927977.22,1
8.0,-17.60111111111111,0.213944,34.65,2289807.25,1600927977.36,1
8.0,45.879999999999995,,,2288043.0,1600927977.5,1
8.0,38.44777777777777,0.215225,34.65,2287656.75,1600927977.64,1
8.0,17.555555555555557,0.215225,34.65,2289565.3333333335,1600927977.78,1
8.0,-20.95111111111111,,,2292674.25,1600927977.92,1
8.0,-61.616666666666674,0.216506,34.65,2286823.0,1600927978.06,1
8.0,-59.26555555555555,,,2267585.5,1600927978.2,1
8.0,27.463333333333335,0.213944,34.66,2261288.0,1600927978.34,1
8.0,41.492222222222225,,,2261033.75,1600927978.48,1
8.0,27.195555555555554,0.213944,34.66,2267262.6666666665,1600927978.62,1
8.0,-5.318888888888889,0.215225,34.66,2278471.0,1600927978.76,1
8.0,-41.75888888888889,,,2287701.6666666665,1600927978.9,1
8.0,-44.248888888888885,0.216506,34.66,2272792.0,1600927979.04,1
8.0,54.70888888888888,,,2265403.3333333335,1600927979.18,1
8.0,73.07888888888888,0.216506,34.66,2265460.0,1600927979.32,1
8.0,51.11222222222222,,,2268836.3333333335,1600927979.46,1
8.0,-1.377777777777778,0.217787,34.66,2275988.25,1600927979.6,1
8.0,-55.70555555555555,,,2284977.3333333335,1600927979.74,1
8.0,-84.82777777777778,0.217787,34.66,2280269.0,1600927979.88,1
8.0,-5.442222222222223,0.219068,34.66,2266590.0,1600927980.02,1
8.0,9.853333333333333,,,2264317.5,1600927980.16,1
8.0,15.41666666666667,0.217787,34.66,2264210.3333333335,1600927980.3,1
8.0,-10.121111111111112,,,2270295.75,1600927980.44,1
8.0,-44.23222222222223,0.219068,34.66,2276979.0,1600927980.58,1
8.0,-83.86333333333333,,,2273473.25,1600927980.72,1
8.0,14.1,0.22163,34.66,2249901.3333333335,1600927980.86,1
8.0,57.67125,,,2241606.75,1600927981.0,1
8.0,54.11,0.224192,34.66,2245730.0,1600927981.14,1
8.0,12.026666666666666,0.225474,34.66,2267649.5,1600927981.28,1
8.0,-39.593333333333334,,,2283846.3333333335,1600927981.42,1
8.0,-93.27777777777777,0.225474,34.66,2287532.5,1600927981.56,1
8.0,16.89333333333333,,,2267246.0,1600927981.7,1
8.0,72.46555555555555,0.224192,34.66,2261517.25,1600927981.84,1
8.0,61.67222222222222,,,2262262.0,1600927981.98,1
8.0,26.884444444444444,0.225474,34.66,2268716.0,1600927982.12,1
8.0,-28.222222222222218,0.242128,34.65,2278408.3333333335,1600927982.26,1
8.0,-94.33333333333333,,,2282323.0,1600927982.4,1
8.0,-33.22333333333333,0.222911,34.65,2261762.0,1600927982.54,1
8.0,71.19777777777777,,,2252856.0,1600927982.68,1
8.0,75.77888888888889,0.222911,34.65,2249940.0,1600927982.82,1
8.0,50.20111111111112,,,2248742.5,1600927982.96,1
8.0,-0.016666666666667298,0.222911,34.65,2249364.6666666665,1600927983.1,1
8.0,-49.64,,,2245184.25,1600927983.24,1
8.0,-93.96777777777778,0.22163,34.66,2214325.6666666665,1600927983.38,1
8.0,26.558888888888887,0.219068,34.66,2196829.75,1600927983.52,1
8.0,60.40555555555555,,,2190043.0,1600927983.66,1
8.0,49.59888888888889,0.220349,34.66,2189734.0,1600927983.8,1
8.0,20.077777777777776,,,2190595.0,1600927983.94,1
8.0,-17.005555555555556,0.220349,34.66,2187887.75,1600927984.08,1
8.0,-63.443333333333335,,,2156318.3333333335,1600927984.22,1
8.0,-46.1188888888889,0.222911,34.66,2139733.5,1600927984.36,1
8.0,55.54875,,,2138151.3333333335,1600927984.5,1
8.0,62.24777777777778,0.220349,34.66,2143059.75,1600927984.64,1
8.0,52.513333333333335,0.22163,34.66,2151039.6666666665,1600927984.78,1
8.0,20.09444444444445,,,2160281.0,1600927984.92,1
8.0,-23.23888888888889,0.238285,34.66,2152849.3333333335,1600927985.06,1
8.0,-68.28888888888889,,,2135485.25,1600927985.2,1
8.0,-74.62,0.222911,34.68,2132329.3333333335,1600927985.34,1
8.0,40.14,,,2136368.25,1600927985.48,1
8.0,69.42666666666666,0.220349,34.68,2147029.3333333335,1600927985.62,1
8.0,65.38222222222221,0.224192,34.68,2159529.25,1600927985.76,1
8.0,35.656666666666666,,,2170729.0,1600927985.9,1
8.0,-14.73222222222222,0.224192,34.68,2160459.5,1600927986.04,1
8.0,-87.10888888888888,,,2156746.3333333335,1600927986.18,1
8.0,-82.18777777777778,0.225474,34.68,2168477.75,1600927986.32,1
8.0,29.783333333333335,,,2183484.0,1600927986.46,1
8.0,28.31888888888889,0.226755,34.68,2196404.5,1600927986.6,1
8.0,14.862222222222224,,,2208894.6666666665,1600927986.74,1
8.0,-3.532222222222222,0.226755,34.68,2218871.75,1600927986.88,1
8.0,-46.01555555555555,0.226755,34.68,2223351.6666666665,1600927987.02,1
8.0,-78.65666666666668,,,2233118.0,1600927987.16,1
8.0,-4.701111111111111,0.222911,34.66,2241754.0,1600927987.3,1
8.0,44.55111111111111,,,2251860.5,1600927987.44,1
8.0,40.861111111111114,0.225474,34.66,2262818.6666666665,1600927987.58,1
8.0,30.834444444444443,,,2274262.75,1600927987.72,1
8.0,3.8022222222222215,0.224192,34.66,2283315.6666666665,1600927987.86,1
8.0,-47.29625,,,2284861.75,1600927988.0,1
8.0,-75.38222222222221,0.225474,34.66,2288830.3333333335,1600927988.14,1
8.0,9.325555555555555,0.225474,34.68,2294219.25,1600927988.28,1
8.0,17.39111111111111,,,2301473.3333333335,1600927988.42,1
8.0,15.003333333333334,0.228036,34.68,2309168.25,1600927988.56,1
8.0,14.67,,,2316938.6666666665,1600927988.7,1
8.0,-36.666666666666664,0.224192,34.68,2321813.0,1600927988.84,1
8.0,-74.39444444444445,,,2321723.3333333335,1600927988.98,1
8.0,21.42666666666667,0.225474,34.68,2326348.5,1600927989.12,1
8.0,62.21555555555555,0.222911,34.68,2332152.0,1600927989.26,1
8.0,25.870000000000005,,,2338706.0,1600927989.4,1
8.0,-3.3999999999999995,0.222911,34.68,2345325.6666666665,1600927989.54,1
8.0,-60.79222222222222,,,2351651.75,1600927989.68,1
8.0,-102.41888888888889,0.222911,34.68,2351477.3333333335,1600927989.82,1
8.0,13.889999999999999,,,2352225.25,1600927989.96,1
8.0,47.628888888888895,0.222911,34.68,2355675.6666666665,1600927990.1,1
8.0,54.25000000000001,,,2359328.5,1600927990.24,1
8.0,28.147777777777776,0.224192,34.68,2364164.0,1600927990.38,1
8.0,-52.19444444444444,0.230598,34.68,2369119.75,1600927990.52,1
8.0,-78.43333333333334,,,2372255.3333333335,1600927990.66,1
8.0,34.12555555555556,0.230598,34.68,2366405.25,1600927990.8,1
8.0,47.266666666666666,,,2364977.0,1600927990.94,1
8.0,45.955555555555556,0.228036,34.68,2367004.75,1600927991.08,1
8.0,-13.53,,,2370846.0,1600927991.22,1
8.0,-117.57777777777778,0.230598,34.68,2376827.5,1600927991.36,1
8.0,-79.26249999999999,,,2382747.3333333335,1600927991.5,1
8.0,56.01555555555555,0.228036,34.68,2379934.75,1600927991.64,1
8.0,65.00444444444446,0.23316,34.68,2379078.6666666665,1600927991.78,1
8.0,38.83777777777778,,,2382210.0,1600927991.92,1
8.0,-23.176666666666662,0.229317,34.68,2386364.6666666665,1600927992.06,1
8.0,-111.00444444444445,,,2391488.75,1600927992.2,1
8.0,-28.990000000000002,0.230598,34.66,2394216.6666666665,1600927992.34,1
8.0,82.16222222222223,,,2384911.5,1600927992.48,1
8.0,88.42666666666668,0.230598,34.66,2380889.6666666665,1600927992.62,1
8.0,62.74777777777778,0.229317,34.66,2379843.5,1600927992.76,1
8.0,-8.480000000000002,,,2382282.0,1600927992.9,1
8.0,-100.63777777777779,0.230598,34.66,2386033.25,1600927993.04,1
8.0,26.79555555555556,,,2384844.6666666665,1600927993.18,1
8.0,46.278888888888886,0.231879,34.66,2367525.5,1600927993.32,1
8.0,53.4388888888889,,,2362245.0,1600927993.46,1
8.0,7.199999999999999,0.23316,34.66,2362550.25,1600927993.6,1
8.0,-68.91888888888889,,,2365571.0,1600927993.74,1
8.0,-88.1277777777778,0.235722,34.66,2371588.75,1600927993.88,1
8.0,62.888888888888886,0.231879,34.66,2365417.0,1600927994.02,1
8.0,80.80000000000001,,,2347317.25,1600927994.16,1
8.0,66.54777777777778,0.230598,34.68,2340593.3333333335,1600927994.3,1
8.0,4.207777777777777,,,2338344.25,1600927994.44,1
8.0,-85.06777777777779,0.230598,34.68,2341715.0,1600927994.58,1
8.0,-144.31444444444446,,,2346995.5,1600927994.72,1
8.0,39.16222222222222,0.231879,34.68,2332902.6666666665,1600927994.86,1
8.0,118.43625,,,2315074.25,1600927995.0,1
8.0,111.12222222222222,0.230598,34.68,2309274.6666666665,1600927995.14,1
8.0,64.61555555555556,0.229317,34.68,2307462.5,1600927995.28,1
8.0,-6.2988888888888885,,,2310241.0,1600927995.42,1
8.0,-75.85555555555555,0.226755,34.68,2308122.25,1600927995.56,1
8.0,-59.83444444444446,,,2276358.3333333335,1600927995.7,1
8.0,82.67333333333333,0.228036,34.68,2258085.0,1600927995.84,1
8.0,89.70444444444443,,,2257420.3333333335,1600927995.98,1
8.0,72.45444444444445,0.229317,34.68,2264672.75,1600927996.12,1
8.0,20.041111111111114,0.234441,34.66,2274450.0,1600927996.26,1
8.0,-68.44111111111111,,,2269739.75,1600927996.4,1
8.0,-152.1955555555556,0.234441,34.66,2236729.6666666665,1600927996.54,1
8.0,-22.417777777777772,,,2220409.0,1600927996.68,1
8.0,41.58333333333333,0.237003,34.66,2214265.6666666665,1600927996.82,1
8.0,58.606666666666655,,,2217017.25,1600927996.96,1
8.0,25.107777777777777,0.23316,34.66,2223245.3333333335,1600927997.1,1
8.0,-34.70777777777778,,,2226984.5,1600927997.24,1
8.0,-84.52555555555554,0.234441,34.68,2196789.3333333335,1600927997.38,1
8.0,-58.13111111111112,0.235722,34.68,2179438.75,1600927997.52,1
8.0,52.84555555555555,,,2176880.3333333335,1600927997.66,1
8.0,57.169999999999995,0.235722,34.68,2180567.6666666665,1600927997.8,1
8.0,44.77555555555556,,,2190197.75,1600927997.94,1
8.0,5.56888888888889,0.235722,34.68,2202827.0,1600927998.08,1
8.0,-42.23555555555556,,,2205183.25,1600927998.22,1
8.0,-101.94444444444444,0.235722,34.66,2181661.6666666665,1600927998.36,1
8.0,-22.844999999999995,,,2173517.75,1600927998.5,1
8.0,37.65222222222222,0.234441,34.66,2171801.5,1600927998.64,1
8.0,36.416666666666664,0.234441,34.66,2177797.6666666665,1600927998.78,1
8.0,28.187777777777782,,,2188018.5,1600927998.92,1
8.0,-5.815555555555555,0.231879,34.66,2196591.6666666665,1600927999.06,1
8.0,-38.85777777777778,,,2180835.0,1600927999.2,1
8.0,-63.28888888888889,0.229317,34.68,2174901.0,1600927999.34,1
8.0,47.93,,,2180732.0,1600927999.48,1
8.0,44.33222222222223,0.230598,34.68,2189601.0,1600927999.62,1
8.0,16.125555555555554,0.229317,34.68,2204187.25,1600927999.76,1
8.0,-5.791111111111111,,,2217712.6666666665,1600927999.9,1
8.0,-36.14222222222222,0.231879,34.68,2225428.0,1600928000.04,1
8.0,-75.72333333333333,,,2221968.3333333335,1600928000.18,1
8.0,-30.22333333333334,0.230598,34.68,2225963.3333333335,1600928000.32,1
8.0,51.394444444444446,,,2233530.75,1600928000.46,1
8.0,44.983333333333334,0.229317,34.68,2243104.0,1600928000.6,1
8.0,36.041111111111114,,,2252727.5,1600928000.74,1
8.0,-9.005555555555555,0.230598,34.68,2262130.0,1600928000.88,1
8.0,-64.44222222222223,0.229317,34.68,2259163.25,1600928001.02,1
8.0,-94.72888888888889,,,2247235.0,1600928001.16,1
8.0,15.184444444444445,0.229317,34.68,2248967.0,1600928001.3,1
8.0,30.783333333333335,,,2257112.5,1600928001.44,1
8.0,27.206666666666663,0.231879,34.68,2269447.0,1600928001.58,1
8.0,-3.2255555555555557,,,2281695.5,1600928001.72,1
8.0,-45.18444444444444,0.231879,34.68,2290014.6666666665,1600928001.86,1
8.0,-67.02000000000001,,,2285796.0,1600928002.0,1
8.0,36.00111111111111,0.234441,34.68,2288570.25,1600928002.14,1
8.0,58.736666666666665,0.234441,34.66,2295225.75,1600928002.28,1
8.0,40.56111111111111,,,2302135.6666666665,1600928002.42,1
8.0,8.105555555555556,0.23316,34.66,2309121.0,1600928002.56,1
8.0,-37.07777777777778,,,2317525.5,1600928002.7,1
8.0,-57.43777777777778,0.234441,34.66,2320813.6666666665,1600928002.84,1
8.0,55.56111111111111,,,2315785.0,1600928002.98,1
8.0,61.416666666666664,0.23316,34.66,2318542.0,1600928003.12,1
8.0,38.595555555555556,0.231879,34.66,2321403.75,1600928003.26,1
8.0,-27.805555555555554,,,2324333.3333333335,1600928003.4,1
8.0,-132.70444444444445,0.234441,34.66,2328805.5,1600928003.54,1
8.0,-98.10666666666667,,,2330807.0,1600928003.68,1
8.0,30.781111111111116,0.234441,34.66,2321135.0,1600928003.82,1
8.0,45.351111111111116,,,2320742.6666666665,1600928003.96,1
8.0,32.617777777777775,0.23316,34.66,2326091.0,1600928004.1,1
8.0,-18.39222222222222,,,2330152.6666666665,1600928004.24,1
8.0,-91.28222222222222,0.235722,34.68,2336701.0,1600928004.38,1
8.0,-27.86666666666666,0.235722,34.68,2341908.3333333335,1600928004.52,1
8.0,69.89666666666666,,,2334464.5,1600928004.66,1
8.0,68.0611111111111,0.235722,34.68,2331216.3333333335,1600928004.8,1
8.0,36.91111111111111,,,2331367.75,1600928004.94,1
8.0,-24.85111111111111,0.23316,34.68,2335948.6666666665,1600928005.08,1
8.0,-99.16666666666667,,,2341145.25,1600928005.22,1
8.0,-17.95777777777778,0.231879,34.68,2345250.3333333335,1600928005.36,1
8.0,85.2625,,,2324873.5,1600928005.5,1
8.0,85.90555555555554,0.231879,34.68,2310846.6666666665,1600928005.64,1
8.0,63.803333333333335,0.231879,34.68,2304147.75,1600928005.78,1
8.0,-8.851111111111111,,,2300918.3333333335,1600928005.92,1
8.0,-103.00444444444445,0.230598,34.68,2303988.5,1600928006.06,1
8.0,-94.52555555555557,,,2306882.3333333335,1600928006.2,1
8.0,59.544444444444444,0.230598,34.68,2299509.5,1600928006.34,1
8.0,84.32111111111111,,,2299935.0,1600928006.48,1
8.0,75.35,0.231879,34.68,2302051.25,1600928006.62,1
8.0,21.293333333333337,0.231879,34.68,2307553.3333333335,1600928006.76,1
8.0,-37.23888888888889,,,2314716.5,1600928006.9,1
8.0,-87.54444444444444,0.230598,34.68,2304369.0,1600928007.04,1
8.0,30.797777777777778,,,2284054.5,1600928007.18,1
8.0,73.84777777777778,0.231879,34.68,2278272.6666666665,1600928007.32,1
8.0,58.29333333333333,,,2276619.75,1600928007.46,1
8.0,21.87,0.23316,34.68,2280211.3333333335,1600928007.6,1
8.0,-23.177777777777777,,,2285972.0,1600928007.74,1
8.0,-75.74666666666667,0.23316,34.68,2270991.3333333335,1600928007.88,1
8.0,-53.81555555555556,0.235722,34.68,2245178.0,1600928008.02,1
8.0,44.44777777777777,,,2233673.3333333335,1600928008.16,1
8.0,53.294444444444444,0.237003,34.68,2226728.75,1600928008.3,1
8.0,38.43222222222222,,,2227022.0,1600928008.44,1
8.0,-7.21,0.235722,34.68,2226980.0,1600928008.58,1
8.0,-55.193333333333335,,,2219131.6666666665,1600928008.72,1
8.0,-84.21444444444444,0.237003,34.68,2203489.5,1600928008.86,1
8.0,25.3075,,,2197396.0,1600928009.0,1
8.0,56.53666666666666,0.239566,34.68,2196690.75,1600928009.14,1
8.0,43.836666666666666,0.239566,34.68,2199225.0,1600928009.28,1
8.0,18.486666666666665,,,2208718.0,1600928009.42,1
8.0,-25.072222222222223,0.240847,34.68,2220212.0,1600928009.56,1
8.0,-77.48777777777778,,,2195074.25,1600928009.7,1
8.0,-59.53555555555555,0.240847,34.68,2178149.0,1600928009.84,1
8.0,41.78555555555555,,,2175227.5,1600928009.98,1
8.0,54.24444444444445,0.240847,34.68,2178474.0,1600928010.12,1
8.0,55.52777777777778,0.240847,34.68,2186376.25,1600928010.26,1
8.0,27.013333333333335,,,2196801.5,1600928010.4,1
8.0,-39.011111111111106,0.238285,34.68,2189498.6666666665,1600928010.54,1
8.0,-100.15333333333334,,,2169641.75,1600928010.68,1
8.0,-19.696666666666665,0.239566,34.68,2165175.0,1600928010.82,1
8.0,29.47222222222222,,,2167163.75,1600928010.96,1
8.0,45.3688888888889,0.239566,34.68,2181260.6666666665,1600928011.1,1
8.0,22.55666666666667,,,2195894.6666666665,1600928011.24,1
8.0,-25.604444444444443,0.240847,34.68,2205969.75,1600928011.38,1
8.0,-65.51,0.240847,34.68,2195197.0,1600928011.52,1
8.0,-64.16666666666667,,,2188969.25,1600928011.66,1
8.0,37.91444444444445,0.243409,34.68,2191326.3333333335,1600928011.8,1
8.0,50.92333333333334,,,2198950.75,1600928011.94,1
8.0,38.32888888888888,0.242128,34.68,2210894.75,1600928012.08,1
8.0,1.2866666666666673,,,2222403.0,1600928012.22,1
8.0,-39.72,0.242128,34.68,2223450.3333333335,1600928012.36,1
8.0,-79.84125,,,2208029.25,1600928012.5,1
8.0,-8.87111111111111,0.243409,34.68,2206659.0,1600928012.64,1
8.0,49.33444444444444,0.242128,34.68,2210041.5,1600928012.78,1
8.0,52.07777777777778,,,2215939.25,1600928012.92,1
8.0,41.333333333333336,0.24469,34.68,2220188.6666666665,1600928013.06,1
8.0,-9.812222222222223,,,2222793.3333333335,1600928013.2,1
8.0,-70.45333333333332,0.24469,34.68,2209867.25,1600928013.34,1
8.0,-16.033333333333335,,,2197282.0,1600928013.48,1
8.0,46.33555555555555,0.245971,34.68,2197653.5,1600928013.62,1
8.0,39.25,0.251096,34.68,2193953.0,1600928013.76,1
8.0,-26.458888888888886,,,2193209.75,1600928013.9,1
8.0,-69.2011111111111,0.254939,34.68,2196424.6666666665,1600928014.04,1
8.0,-90.17,,,2202427.0,1600928014.18,1
8.0,8.511111111111111,0.25622,34.71,2188222.3333333335,1600928014.32,1
8.0,37.92777777777778,,,2183357.0,1600928014.46,1
8.0,21.162222222222223,0.254939,34.71,2188616.0,1600928014.6,1
8.0,-5.8855555555555545,,,2202214.0,1600928014.74,1
8.0,-52.71444444444445,0.253658,34.71,2216570.0,1600928014.88,1
8.0,-68.75444444444445,0.253658,34.71,2227983.0,1600928015.02,1
8.0,54.478888888888896,,,2224446.0,1600928015.16,1
8.0,77.66666666666667,0.253658,34.71,2217891.75,1600928015.3,1
8.0,57.45000000000001,,,2222499.3333333335,1600928015.44,1
8.0,11.383333333333333,0.252377,34.71,2224653.0,1600928015.58,1
8.0,-51.794444444444444,,,2227313.6666666665,1600928015.72,1
8.0,-86.27999999999999,0.252377,34.71,2231270.0,1600928015.86,1
8.0,26.73875,,,2222549.0,1600928016.0,1
8.0,41.74222222222222,0.253658,34.71,2212256.0,1600928016.14,1
8.0,36.58555555555555,0.254939,34.68,2210895.6666666665,1600928016.28,1
8.0,7.647777777777778,,,2214225.75,1600928016.42,1
8.0,-53.214444444444446,0.254939,34.68,2225317.0,1600928016.56,1
8.0,-93.11555555555555,,,2236729.75,1600928016.7,1
8.0,42.15555555555555,0.25622,34.68,2227702.3333333335,1600928016.84,1
8.0,70.66333333333334,,,2222842.0,1600928016.98,1
8.0,59.61666666666666,0.254939,34.68,2225240.0,1600928017.12,1
8.0,21.456666666666667,0.25622,34.68,2231252.25,1600928017.26,1
8.0,-21.333333333333332,,,2240392.3333333335,1600928017.4,1
8.0,-63.19888888888889,0.254939,34.68,2245722.25,1600928017.54,1
8.0,36.61666666666666,,,2233294.6666666665,1600928017.68,1
8.0,47.74666666666666,0.25622,34.68,2230350.0,1600928017.82,1
8.0,14.312222222222223,,,2230847.0,1600928017.96,1
8.0,-15.799999999999999,0.254939,34.68,2233985.75,1600928018.1,1
8.0,-46.14777777777778,,,2240753.6666666665,1600928018.24,1
8.0,-81.89111111111112,0.257501,34.71,2242620.5,1600928018.38,1
8.0,-1.8466666666666702,0.258782,34.71,2232671.0,1600928018.52,1
8.0,65.13444444444445,,,2233730.0,1600928018.66,1
8.0,49.98777777777778,0.260063,34.71,2236352.6666666665,1600928018.8,1
8.0,23.441111111111113,,,2241447.75,1600928018.94,1
8.0,-23.87333333333333,0.25622,34.71,2249922.6666666665,1600928019.08,1
8.0,-74.54,,,2255912.25,1600928019.22,1
8.0,-84.93,0.258782,34.68,2242719.6666666665,1600928019.36,1
8.0,57.77125,,,2239641.0,1600928019.5,1
8.0,72.39111111111112,0.258782,34.68,2242228.3333333335,1600928019.64,1
8.0,59.68333333333333,0.258782,34.68,2249030.5,1600928019.78,1
8.0,30.571111111111108,,,2258106.6666666665,1600928019.92,1
8.0,-6.588888888888889,0.260063,34.68,2264566.0,1600928020.06,1
8.0,-72.53444444444443,,,2248162.3333333335,1600928020.2,1
8.0,-62.89555555555556,0.261344,34.68,2237886.75,1600928020.34,1
8.0,34.69555555555556,,,2235513.0,1600928020.48,1
8.0,44.00555555555555,0.262625,34.68,2246653.5,1600928020.62,1
8.0,31.049999999999997,0.262625,34.68,2260433.0,1600928020.76,1
8.0,-4.512222222222222,,,2271882.25,1600928020.9,1
8.0,-58.64444444444444,0.263907,34.68,2265674.0,1600928021.04,1
8.0,-114.90777777777778,,,2252415.75,1600928021.18,1
8.0,7.953333333333335,0.261344,34.71,2251711.6666666665,1600928021.32,1
8.0,80.85666666666667,,,2253717.0,1600928021.46,1
8.0,78.49111111111111,0.261344,34.71,2261190.0,1600928021.6,1
8.0,53.45000000000001,,,2270338.5,1600928021.74,1
8.0,-0.7266666666666661,0.262625,34.71,2275540.0,1600928021.88,1
8.0,-52.66555555555556,0.261344,34.71,2254340.25,1600928022.02,1
8.0,-92.33111111111111,,,2244697.0,1600928022.16,1
8.0,28.49888888888889,0.261344,34.68,2239673.5,1600928022.3,1
8.0,56.766666666666666,,,2238259.6666666665,1600928022.44,1
8.0,47.52333333333334,0.261344,34.68,2239667.75,1600928022.58,1
8.0,20.745555555555555,,,2245017.6666666665,1600928022.72,1
8.0,-11.411111111111111,0.262625,34.68,2233682.5,1600928022.86,1
8.0,-48.43,,,2211101.3333333335,1600928023.0,1
8.0,-98.30111111111111,0.260063,34.68,2209621.0,1600928023.14,1
8.0,20.267777777777773,0.261344,34.71,2210042.6666666665,1600928023.28,1
8.0,58.17777777777778,,,2216943.5,1600928023.42,1
8.0,51.23222222222222,0.261344,34.71,2226530.0,1600928023.56,1
8.0,26.41,,,2234854.5,1600928023.7,1
8.0,-10.793333333333331,0.263907,34.71,2215587.6666666665,1600928023.84,1
8.0,-53.73888888888889,,,2199823.0,1600928023.98,1
8.0,-102.35666666666667,0.261344,34.71,2197447.6666666665,1600928024.12,1
8.0,7.286666666666666,0.262625,34.71,2200631.25,1600928024.26,1
8.0,49.89,,,2209351.3333333335,1600928024.4,1
8.0,49.595555555555556,0.262625,34.71,2218562.25,1600928024.54,1
8.0,22.95888888888889,,,2228652.6666666665,1600928024.68,1
8.0,-23.271111111111114,0.263907,34.71,2205837.75,1600928024.82,1
8.0,-75.52666666666667,,,2194006.3333333335,1600928024.96,1
8.0,-89.72111111111111,0.262625,34.71,2196093.5,1600928025.1,1
8.0,48.61222222222223,,,2201803.3333333335,1600928025.24,1
8.0,62.896666666666675,0.262625,34.71,2213307.5,1600928025.38,1
8.0,61.146666666666675,0.263907,34.71,2225753.0,1600928025.52,1
8.0,24.221111111111114,,,2234475.0,1600928025.66,1
8.0,-32.30111111111111,0.263907,34.71,2212253.6666666665,1600928025.8,1
8.0,-111.39999999999999,,,2204057.25,1600928025.94,1
8.0,-73.07666666666667,0.265188,34.71,2205393.6666666665,1600928026.08,1
8.0,54.90555555555555,,,2212054.75,1600928026.22,1
8.0,62.49888888888889,0.263907,34.71,2222326.0,1600928026.36,1
8.0,65.16375,,,2233026.0,1600928026.5,1
8.0,9.606666666666666,0.262625,34.71,2241631.6666666665,1600928026.64,1
8.0,-61.36444444444445,0.262625,34.71,2217729.25,1600928026.78,1
8.0,-130.06555555555556,,,2210013.0,1600928026.92,1
8.0,-26.675555555555555,0.265188,34.71,2212115.75,1600928027.06,1
8.0,77.08777777777777,,,2220368.3333333335,1600928027.2,1
8.0,78.54666666666667,0.263907,34.71,2231909.75,1600928027.34,1
8.0,56.778888888888886,,,2245511.0,1600928027.48,1
8.0,-1.7855555555555545,0.263907,34.71,2249588.75,1600928027.62,1
8.0,-77.36777777777779,0.263907,34.71,2224245.3333333335,1600928027.76,1
8.0,-152.00666666666666,,,2219776.75,1600928027.9,1
8.0,10.202222222222225,0.265188,34.71,2222157.3333333335,1600928028.04,1
8.0,101.53555555555555,,,2228967.25,1600928028.18,1
8.0,97.76888888888888,0.266469,34.71,2239022.0,1600928028.32,1
8.0,58.77777777777778,,,2250250.25,1600928028.46,1
8.0,-2.9288888888888884,0.266469,34.71,2244760.6666666665,1600928028.6,1
8.0,-68.74666666666666,,,2217673.0,1600928028.74,1
8.0,-133.5211111111111,0.26775,34.71,2213919.3333333335,1600928028.88,1
8.0,38.175555555555555,0.269031,34.71,2213683.25,1600928029.02,1
8.0,96.90555555555555,,,2221279.3333333335,1600928029.16,1
8.0,87.03333333333333,0.269031,34.68,2231827.75,1600928029.3,1
8.0,53.733333333333334,,,2242187.0,1600928029.44,1
8.0,-3.290000000000001,0.26775,34.68,2216686.25,1600928029.58,1
8.0,-64.26777777777778,,,2188754.3333333335,1600928029.72,1
8.0,-123.83999999999999,0.265188,34.68,2180955.0,1600928029.86,1
8.0,45.79,,,2178515.0,1600928030.0,1
8.0,108.39666666666668,0.265188,34.68,2187563.5,1600928030.14,1
8.0,100.93666666666667,0.26775,34.71,2194387.0,1600928030.28,1
8.0,13.05888888888889,,,2201809.0,1600928030.42,1
8.0,-72.33,0.266469,34.71,2171461.0,1600928030.56,1
8.0,-139.09111111111108,,,2149634.75,1600928030.7,1
8.0,-127.03,0.265188,34.71,2142896.3333333335,1600928030.84,1
8.0,55.09,,,2144000.5,1600928030.98,1
8.0,88.60444444444445,0.263907,34.71,2151918.3333333335,1600928031.12,1
8.0,78.46555555555557,0.265188,34.68,2162995.25,1600928031.26,1
8.0,39.59888888888889,,,2171563.0,1600928031.4,1
8.0,-17.418888888888887,0.263907,34.68,2138358.25,1600928031.54,1
8.0,-69.41777777777777,,,2123420.0,1600928031.68,1
8.0,-112.67444444444445,0.263907,34.68,2120731.0,1600928031.82,1
8.0,19.076666666666668,,,2123379.0,1600928031.96,1
8.0,64.49222222222221,0.263907,34.68,2132712.75,1600928032.1,1
8.0,62.56444444444445,,,2144829.6666666665,1600928032.24,1
8.0,28.938888888888886,0.265188,34.71,2150591.5,1600928032.38,1
8.0,-16.621111111111112,0.263907,34.71,2121213.6666666665,1600928032.52,1
8.0,-79.67777777777778,,,2110183.75,1600928032.66,1
8.0,-127.99444444444445,0.265188,34.71,2109237.3333333335,1600928032.8,1
8.0,32.66555555555556,,,2117200.0,1600928032.94,1
8.0,90.69222222222223,0.265188,34.71,2128378.3333333335,1600928033.08,1
8.0,80.96333333333332,,,2141076.75,1600928033.22,1
8.0,43.41333333333333,0.263907,34.68,2145280.6666666665,1600928033.36,1
8.0,-7.67625,,,2121775.25,1600928033.5,1
8.0,-60.61222222222221,0.263907,34.68,2116306.0,1600928033.64,1
8.0,-127.95333333333332,0.265188,34.68,2119589.25,1600928033.78,1
8.0,-31.02111111111111,,,2128416.6666666665,1600928033.92,1
8.0,56.88777777777777,0.265188,34.68,2139696.5,1600928034.06,1
8.0,71.30555555555556,,,2152462.0,1600928034.2,1
8.0,49.54777777777778,0.263907,34.68,2157728.0,1600928034.34,1
8.0,7.190000000000001,,,2141491.0,1600928034.48,1
8.0,-52.72,0.263907,34.68,2138597.75,1600928034.62,1
8.0,-125.3111111111111,0.262625,34.68,2141082.3333333335,1600928034.76,1
8.0,-19.363333333333337,,,2149857.0,1600928034.9,1
8.0,79.72666666666667,0.265188,34.68,2161309.6666666665,1600928035.04,1
8.0,83.62666666666667,,,2172367.5,1600928035.18,1
8.0,59.74777777777778,0.263907,34.71,2181831.0,1600928035.32,1
8.0,4.194444444444445,,,2170618.5,1600928035.46,1
8.0,-56.33444444444445,0.265188,34.71,2168199.3333333335,1600928035.6,1
8.0,-123.22222222222223,,,2172123.75,1600928035.74,1
8.0,-20.516666666666666,0.26775,34.71,2179605.3333333335,1600928035.88,1
8.0,65.18777777777778,0.26775,34.71,2190234.0,1600928036.02,1
8.0,68.77444444444444,,,2200537.6666666665,1600928036.16,1
8.0,46.93555555555556,0.26775,34.68,2216349.0,1600928036.3,1
8.0,-6.57,,,2214964.0,1600928036.44,1
8.0,-61.46888888888889,0.266469,34.68,2213113.0,1600928036.58,1
8.0,-121.64555555555555,,,2216960.6666666665,1600928036.72,1
8.0,-12.371111111111107,0.26775,34.68,2224535.25,1600928036.86,1
8.0,61.20375,,,2234581.0,1600928037.0,1
8.0,64.4877777777778,0.263907,34.68,2246344.0,1600928037.14,1
8.0,47.31111111111111,0.265188,34.71,2257934.6666666665,1600928037.28,1
8.0,0.22666666666666657,,,2253672.5,1600928037.42,1
8.0,-57.48111111111112,0.263907,34.71,2249515.3333333335,1600928037.56,1
8.0,-126.12444444444444,,,2253373.5,1600928037.7,1
8.0,-12.663333333333334,0.265188,34.71,2259314.3333333335,1600928037.84,1
8.0,70.37666666666665,,,2267464.0,1600928037.98,1
8.0,75.93666666666667,0.265188,34.71,2274419.3333333335,1600928038.12,1
8.0,47.355555555555554,0.263907,34.68,2280352.25,1600928038.26,1
8.0,-11.044444444444444,,,2273454.3333333335,1600928038.4,1
8.0,-78.11333333333333,0.265188,34.68,2265094.0,1600928038.54,1
8.0,-116.76111111111112,,,2269028.6666666665,1600928038.68,1
8.0,38.33777777777778,0.26775,34.68,2273722.0,1600928038.82,1
8.0,90.32111111111111,,,2279728.3333333335,1600928038.96,1
8.0,80.06888888888889,0.265188,34.68,2286872.75,1600928039.1,1
8.0,29.804444444444446,,,2294880.0,1600928039.24,1
8.0,-22.023333333333333,0.269031,34.71,2282361.5,1600928039.38,1
8.0,-89.83111111111111,0.26775,34.71,2270018.6666666665,1600928039.52,1
8.0,-100.18777777777777,,,2266768.25,1600928039.66,1
8.0,54.46555555555556,0.270312,34.71,2267075.3333333335,1600928039.8,1
8.0,93.82333333333332,,,2270924.0,1600928039.94,1
8.0,64.86666666666667,0.271593,34.71,2276016.3333333335,1600928040.08,1
8.0,10.311111111111112,,,2279620.75,1600928040.22,1
8.0,-38.190000000000005,0.271593,34.71,2257858.0,1600928040.36,1
8.0,-96.02000000000001,,,2246613.75,1600928040.5,1
8.0,-81.56111111111112,0.274155,34.71,2242682.6666666665,1600928040.64,1
8.0,62.71777777777778,0.274155,34.71,2243251.25,1600928040.78,1
8.0,81.83333333333333,,,2248032.6666666665,1600928040.92,1
8.0,64.38777777777779,0.275436,34.71,2253998.0,1600928041.06,1
8.0,17.327777777777776,,,2256339.3333333335,1600928041.2,1
8.0,-33.29555555555556,0.275436,34.68,2230998.75,1600928041.34,1
8.0,-98.95333333333333,,,2217045.0,1600928041.48,1
8.0,-72.29333333333334,0.275436,34.68,2212315.25,1600928041.62,1
8.0,57.483333333333334,0.272874,34.68,2213781.0,1600928041.76,1
8.0,80.38777777777779,,,2219346.25,1600928041.9,1
8.0,68.66777777777777,0.271593,34.68,2226966.0,1600928042.04,1
8.0,23.317777777777778,,,2224575.0,1600928042.18,1
8.0,-38.17666666666666,0.271593,34.68,2200104.3333333335,1600928042.32,1
8.0,-98.19777777777777,,,2190295.25,1600928042.46,1
8.0,-88.18444444444445,0.272874,34.68,2186012.3333333335,1600928042.6,1
8.0,37.95444444444445,,,2188480.0,1600928042.74,1
8.0,71.02444444444444,0.274155,34.68,2193993.3333333335,1600928042.88,1
8.0,61.48666666666665,0.272874,34.68,2202501.5,1600928043.02,1
8.0,24.534444444444446,,,2199421.3333333335,1600928043.16,1
8.0,-21.495555555555555,0.271593,34.71,2174121.25,1600928043.3,1
8.0,-72.28444444444443,,,2162771.3333333335,1600928043.44,1
8.0,-83.38111111111112,0.275436,34.71,2159205.25,1600928043.58,1
8.0,26.85222222222222,,,2163716.3333333335,1600928043.72,1
8.0,50.843333333333334,0.277999,34.71,2171065.0,1600928043.86,1
8.0,44.675,,,2179725.6666666665,1600928044.0,1
8.0,16.72,0.277999,34.71,2172136.75,1600928044.14,1
8.0,-25.642222222222223,0.276718,34.71,2146630.6666666665,1600928044.28,1
8.0,-71.75555555555555,,,2136578.75,1600928044.42,1
8.0,-72.22444444444444,0.277999,34.71,2135685.6666666665,1600928044.56,1
8.0,32.378888888888895,,,2141897.5,1600928044.7,1
8.0,52.85555555555556,0.277999,34.71,2150861.3333333335,1600928044.84,1
8.0,44.95666666666666,,,2162996.75,1600928044.98,1
8.0,8.001111111111111,0.280561,34.71,2163493.0,1600928045.12,1
8.0,-36.70777777777778,0.280561,34.68,2144691.5,1600928045.26,1
8.0,-90.75888888888888,,,2138943.6666666665,1600928045.4,1
8.0,-34.791111111111114,0.280561,34.68,2140750.75,1600928045.54,1
8.0,55.443333333333335,,,2148658.6666666665,1600928045.68,1
8.0,67.98555555555555,0.281842,34.68,2159739.5,1600928045.82,1
8.0,56.535555555555554,,,2172153.0,1600928045.96,1
8.0,8.45444444444444,0.27928,34.68,2178838.0,1600928046.1,1
8.0,-78.98777777777777,,,2168330.6666666665,1600928046.24,1
8.0,-133.46777777777777,0.281842,34.68,2165829.0,1600928046.38,1
8.0,-23.38,0.27928,34.68,2172683.3333333335,1600928046.52,1
8.0,61.04777777777778,,,2182146.75,1600928046.66,1
8.0,68.5488888888889,0.281842,34.68,2191663.6666666665,1600928046.8,1
8.0,46.852222222222224,,,2204194.5,1600928046.94,1
8.0,-4.575555555555556,0.27928,34.68,2208780.0,1600928047.08,1
8.0,-61.95444444444445,,,2202901.75,1600928047.22,1
8.0,-107.06666666666666,0.280561,34.71,2205845.6666666665,1600928047.36,1
8.0,17.29,,,2211448.5,1600928047.5,1
8.0,76.54666666666668,0.277999,34.71,2220936.6666666665,1600928047.64,1
8.0,82.84666666666668,0.281842,34.71,2231285.25,1600928047.78,1
8.0,61.833333333333336,,,2241487.0,1600928047.92,1
8.0,-10.414444444444445,0.283123,34.71,2239025.0,1600928048.06,1
8.0,-101.86777777777777,,,2232866.0,1600928048.2,1
8.0,-124.26444444444445,0.280561,34.71,2231308.25,1600928048.34,1
8.0,15.337777777777777,,,2236160.6666666665,1600928048.48,1
8.0,65.75222222222222,0.281842,34.71,2244686.5,1600928048.62,1
8.0,71.18,0.283123,34.71,2253906.6666666665,1600928048.76,1
8.0,28.5,,,2261906.3333333335,1600928048.9,1
8.0,-25.395555555555553,0.283123,34.71,2255643.5,1600928049.04,1
8.0,-92.85222222222222,,,2247658.0,1600928049.18,1
8.0,-50.65555555555556,0.284404,34.68,2248253.6666666665,1600928049.32,1
8.0,58.01777777777777,,,2252816.5,1600928049.46,1
8.0,67.84777777777776,0.285685,34.68,2259522.0,1600928049.6,1
8.0,52.66,,,2265999.3333333335,1600928049.74,1
8.0,6.374444444444446,0.283123,34.68,2271860.75,1600928049.88,1
8.0,-52.21333333333333,0.281842,34.68,2259654.5,1600928050.02,1
8.0,-116.7277777777778,,,2253336.3333333335,1600928050.16,1
8.0,-5.543333333333336,0.280561,34.71,2253170.3333333335,1600928050.3,1
8.0,75.61,,,2255864.5,1600928050.44,1
8.0,77.50666666666666,0.280561,34.71,2262102.0,1600928050.58,1
8.0,42.81555555555556,,,2269608.75,1600928050.72,1
8.0,-6.423333333333333,0.280561,34.71,2272310.25,1600928050.86,1
8.0,-61.6125,,,2258406.0,1600928051.0,1
8.0,-113.13,0.280561,34.71,2253154.6666666665,1600928051.14,1
8.0,18.112222222222222,0.280561,34.71,2252421.0,1600928051.28,1
8.0,72.08111111111111,,,2256145.3333333335,1600928051.42,1
8.0,68.53555555555558,0.280561,34.71,2262448.0,1600928051.56,1
8.0,34.62888888888889,,,2269495.3333333335,1600928051.7,1
8.0,-17.43111111111111,0.281842,34.71,2264779.0,1600928051.84,1
8.0,-80.52,,,2247324.0,1600928051.98,1
8.0,-77.04222222222222,0.280561,34.71,2240519.0,1600928052.12,1
8.0,49.75333333333333,0.285685,34.68,2238162.0,1600928052.26,1
8.0,71.67444444444445,,,2241542.25,1600928052.4,1
8.0,62.21777777777778,0.285685,34.68,2249015.75,1600928052.54,1
8.0,12.634444444444446,,,2256167.3333333335,1600928052.68,1
8.0,-40.27888888888889,0.289529,34.68,2239218.0,1600928052.82,1
8.0,-104.38,,,2223677.25,1600928052.96,1
8.0,-34.77555555555555,0.288247,34.68,2220655.0,1600928053.1,1
8.0,67.89777777777778,,,2224153.0,1600928053.24,1
8.0,75.4011111111111,0.29081,34.68,2231313.0,1600928053.38,1
8.0,54.43222222222222,0.29081,34.68,2239093.5,1600928053.52,1
8.0,5.333333333333332,,,2247206.3333333335,1600928053.66,1
8.0,-46.17111111111112,0.292091,34.68,2228834.0,1600928053.8,1
8.0,-105.14111111111112,,,2216178.0,1600928053.94,1
8.0,-17.85888888888889,0.292091,34.68,2213594.75,1600928054.08,1
8.0,57.80888888888889,,,2215844.0,1600928054.22,1
8.0,52.67333333333333,0.292091,34.66,2221119.25,1600928054.36,1
8.0,37.26,,,2228523.6666666665,1600928054.5,1
8.0,0.09777777777777688,0.292091,34.66,2227648.75,1600928054.64,1
8.0,-42.41333333333333,0.292091,34.66,2206478.3333333335,1600928054.78,1
8.0,-94.9711111111111,,,2202305.25,1600928054.92,1
8.0,-17.886666666666663,0.289529,34.66,2201642.6666666665,1600928055.06,1
8.0,56.00666666666666,,,2206704.25,1600928055.2,1
8.0,50.31111111111111,0.289529,34.68,2215777.6666666665,1600928055.34,1
8.0,34.03222222222222,,,2223771.25,1600928055.48,1
8.0,-7.022222222222223,0.288247,34.68,2209228.6666666665,1600928055.62,1
8.0,-49.95777777777778,0.286966,34.68,2178395.75,1600928055.76,1
8.0,-83.32555555555557,,,2162661.3333333335,1600928055.9,1
8.0,26.19,0.289529,34.68,2154469.0,1600928056.04,1
8.0,55.586666666666666,,,2159459.3333333335,1600928056.18,1
8.0,47.60666666666667,0.289529,34.68,2171074.75,1600928056.32,1
8.0,10.643333333333333,,,2187454.3333333335,1600928056.46,1
8.0,-37.6,0.286966,34.68,2182214.75,1600928056.6,1
8.0,-86.82666666666667,,,2164724.6666666665,1600928056.74,1
8.0,-54.43777777777777,0.288247,34.68,2162584.25,1600928056.88,1
8.0,46.093333333333334,0.289529,34.68,2173867.6666666665,1600928057.02,1
8.0,50.9,,,2190577.25,1600928057.16,1
8.0,36.67777777777778,0.292091,34.66,2206368.3333333335,1600928057.3,1
8.0,-4.285555555555555,,,2223871.0,1600928057.44,1
8.0,-51.894444444444446,0.293372,34.66,2221545.0,1600928057.58,1
8.0,-97.26666666666667,,,2215515.25,1600928057.72,1
8.0,11.083333333333332,0.293372,34.66,2220588.3333333335,1600928057.86,1
8.0,60.81625,,,2228282.5,1600928058.0,1
8.0,59.77333333333334,0.29081,34.66,2240194.0,1600928058.14,1
8.0,46.71888888888889,0.292091,34.68,2253104.0,1600928058.28,1
8.0,-9.78111111111111,,,2264312.6666666665,1600928058.42,1
8.0,-106.55444444444444,0.289529,34.68,2255855.0,1600928058.56,1
8.0,-103.74444444444445,,,2254126.3333333335,1600928058.7,1
8.0,32.20333333333334,0.289529,34.68,2259652.25,1600928058.84,1
8.0,56.739999999999995,,,2267230.0,1600928058.98,1
8.0,49.306666666666665,0.29081,34.68,2277696.25,1600928059.12,1
8.0,14.101111111111113,0.29081,34.66,2288817.6666666665,1600928059.26,1
8.0,-38.87,,,2291192.0,1600928059.4,1
8.0,-100.68333333333334,0.29081,34.66,2282749.0,1600928059.54,1
8.0,-11.825555555555553,,,2286237.25,1600928059.68,1
8.0,68.31222222222222,0.286966,34.66,2291315.6666666665,1600928059.82,1
8.0,67.96333333333334,,,2299461.75,1600928059.96,1
8.0,45.034444444444446,0.288247,34.66,2308560.0,1600928060.1,1
8.0,-5.543333333333333,,,2316339.75,1600928060.24,1
8.0,-66.44555555555556,0.286966,34.68,2308641.6666666665,1600928060.38,1
8.0,-100.67333333333333,0.286966,34.68,2302607.75,1600928060.52,1
8.0,36.79666666666667,,,2304204.0,1600928060.66,1
8.0,71.40888888888888,0.285685,34.68,2308708.25,1600928060.8,1
8.0,65.90777777777777,,,2316936.0,1600928060.94,1
8.0,28.07111111111111,0.288247,34.68,2324947.5,1600928061.08,1
8.0,-27.834444444444447,,,2326692.0,1600928061.22,1
8.0,-93.25666666666667,0.285685,34.68,2311163.75,1600928061.36,1
8.0,-67.755,,,2307630.0,1600928061.5,1
8.0,57.484444444444435,0.284404,34.68,2308694.0,1600928061.64,1
8.0,68.06777777777776,0.284404,34.68,2313588.6666666665,1600928061.78,1
8.0,56.09222222222221,,,2319857.5,1600928061.92,1
8.0,14.041111111111112,0.284404,34.68,2326741.6666666665,1600928062.06,1
8.0,-34.51111111111111,,,2314420.75,1600928062.2,1
8.0,-75.89666666666666,0.286966,34.66,2300952.3333333335,1600928062.34,1
8.0,-32.995555555555555,,,2299492.0,1600928062.48,1
8.0,39.260000000000005,0.288247,34.66,2301249.3333333335,1600928062.62,1
8.0,49.28666666666666,0.289529,34.66,2305869.25,1600928062.76,1
8.0,36.74222222222222,,,2309893.6666666665,1600928062.9,1
8.0,-7.11,0.289529,34.66,2314958.25,1600928063.04,1
8.0,-60.18111111111111,,,2298120.6666666665,1600928063.18,1
8.0,-107.77222222222223,0.29081,34.68,2291678.75,1600928063.32,1
8.0,26.067777777777778,,,2291141.0,1600928063.46,1
8.0,73.52444444444444,0.289529,34.68,2295009.75,1600928063.6,1
8.0,69.69666666666667,,,2301692.0,1600928063.74,1
8.0,31.407777777777774,0.289529,34.68,2308239.5,1600928063.88,1
8.0,-25.16,0.29081,34.68,2303850.0,1600928064.02,1
8.0,-86.07111111111111,,,2281698.5,1600928064.16,1
8.0,-77.21666666666667,0.29081,34.66,2275747.0,1600928064.3,1
8.0,52.23444444444445,,,2275732.75,1600928064.44,1
8.0,64.56222222222223,0.289529,34.66,2280870.6666666665,1600928064.58,1
8.0,49.12111111111111,,,2287854.5,1600928064.72,1
8.0,2.5599999999999996,0.289529,34.66,2295577.0,1600928064.86,1
8.0,-54.45,,,2283572.25,1600928065.0,1
8.0,-97.34222222222222,0.288247,34.66,2266039.3333333335,1600928065.14,1
8.0,30.61555555555556,0.286966,34.68,2264660.75,1600928065.28,1
8.0,71.24222222222221,,,2266540.3333333335,1600928065.42,1
8.0,65.16888888888889,0.286966,34.68,2273416.75,1600928065.56,1
8.0,0.6133333333333333,,,2281384.6666666665,1600928065.7,1
8.0,-63.22888888888888,0.288247,34.68,2287123.75,1600928065.84,1
8.0,-101.6011111111111,,,2266121.3333333335,1600928065.98,1
8.0,30.573333333333338,0.289529,34.68,2254717.0,1600928066.12,1
8.0,60.50555555555555,0.29081,34.68,2253839.0,1600928066.26,1
8.0,47.77555555555555,,,2259194.75,1600928066.4,1
8.0,5.4177777777777765,0.288247,34.68,2267916.0,1600928066.54,1
8.0,-54.205555555555556,,,2276191.25,1600928066.68,1
8.0,-89.27333333333333,0.288247,34.68,2275165.0,1600928066.82,1
8.0,30.13222222222222,,,2262198.75,1600928066.96,1
8.0,54.86888888888889,0.286966,34.68,2260866.6666666665,1600928067.1,1
8.0,46.22777777777778,,,2260117.75,1600928067.24,1
8.0,16.684444444444445,0.29081,34.68,2266480.0,1600928067.38,1
8.0,-33.90111111111111,0.289529,34.68,2276269.5,1600928067.52,1
8.0,-91.16777777777779,,,2281872.0,1600928067.66,1
8.0,-0.18888888888889,0.292091,34.68,2256712.25,1600928067.8,1
8.0,67.70777777777778,,,2246913.3333333335,1600928067.94,1
8.0,67.27666666666669,0.292091,34.68,2247437.75,1600928068.08,1
8.0,35.11222222222223,,,2253887.6666666665,1600928068.22,1
8.0,-16.81888888888889,0.29081,34.68,2264287.75,1600928068.36,1
8.0,-66.40125,,,2267874.6666666665,1600928068.5,1
8.0,-49.502222222222215,0.292091,34.68,2239186.25,1600928068.64,1
8.0,46.50666666666667,0.293372,34.68,2229055.6666666665,1600928068.78,1
8.0,46.49444444444444,,,2224961.0,1600928068.92,1
8.0,29.23222222222222,0.29081,34.68,2227907.6666666665,1600928069.06,1
8.0,-9.77888888888889,,,2235651.75,1600928069.2,1
8.0,-54.87555555555556,0.292091,34.68,2242111.6666666665,1600928069.34,1
8.0,-81.91000000000001,,,2220816.0,1600928069.48,1
8.0,25.37444444444445,0.292091,34.68,2213658.0,1600928069.62,1
8.0,44.76777777777778,0.289529,34.68,2216325.0,1600928069.76,1
8.0,33.817777777777785,,,2218495.3333333335,1600928069.9,1
8.0,1.8244444444444443,0.288247,34.68,2227786.25,1600928070.04,1
8.0,-47.857777777777784,,,2238078.0,1600928070.18,1
8.0,-65.81888888888889,0.289529,34.66,2214942.75,1600928070.32,1
8.0,32.81666666666666,,,2191813.6666666665,1600928070.46,1
8.0,41.07333333333334,0.289529,34.66,2187095.5,1600928070.6,1
8.0,26.78888888888889,,,2188671.3333333335,1600928070.74,1
8.0,-7.865555555555556,0.29081,34.66,2197282.0,1600928070.88,1
8.0,-69.22,0.292091,34.66,2206354.3333333335,1600928071.02,1
8.0,-42.00555555555555,,,2198231.25,1600928071.16,1
8.0,39.287777777777784,0.293372,34.71,2174691.0,1600928071.3,1
8.0,39.14222222222222,,,2171639.0,1600928071.44,1
8.0,14.65666666666667,0.29081,34.71,2176107.0,1600928071.58,1
8.0,-36.75111111111111,,,2183710.5,1600928071.72,1
8.0,-87.27666666666667,0.292091,34.71,2197001.3333333335,1600928071.86,1
8.0,1.6849999999999987,,,2209136.0,1600928072.0,1
8.0,54.56777777777778,0.292091,34.71,2189794.6666666665,1600928072.14,1
8.0,44.123333333333335,0.294653,34.68,2188432.0,1600928072.28,1
8.0,19.025555555555556,,,2193728.0,1600928072.42,1
8.0,-32.30222222222223,0.294653,34.68,2205330.25,1600928072.56,1
8.0,-80.90444444444444,,,2219798.6666666665,1600928072.7,1
8.0,12.502222222222223,0.294653,34.68,2226066.75,1600928072.84,1
8.0,52.84,,,2207186.0,1600928072.98,1
8.0,40.83444444444444,0.295934,34.68,2208263.25,1600928073.12,1
8.0,14.717777777777782,0.293372,34.66,2213832.0,1600928073.26,1
8.0,-39.15111111111111,,,2224360.25,1600928073.4,1
8.0,-93.03222222222222,0.295934,34.66,2237374.3333333335,1600928073.54,1
8.0,5.045555555555557,,,2230760.75,1600928073.68,1
8.0,60.34444444444445,0.295934,34.66,2214954.3333333335,1600928073.82,1
8.0,52.05,,,2219034.25,1600928073.96,1
8.0,27.294444444444444,0.294653,34.66,2226030.3333333335,1600928074.1,1
8.0,-26.76111111111111,,,2238857.75,1600928074.24,1
8.0,-90.39222222222223,0.292091,34.66,2251424.3333333335,1600928074.38,1
8.0,-36.18222222222223,0.29081,34.66,2234666.0,1600928074.52,1
8.0,64.44999999999999,,,2224954.6666666665,1600928074.66,1
8.0,58.903333333333336,0.292091,34.66,2229520.25,1600928074.8,1
8.0,41.62777777777777,,,2237582.3333333335,1600928074.94,1
8.0,-4.732222222222223,0.292091,34.66,2250174.75,1600928075.08,1
8.0,-65.74444444444445,,,2259636.6666666665,1600928075.22,1
8.0,-96.75777777777778,0.29081,34.66,2238525.5,1600928075.36,1
8.0,39.20125,,,2230620.3333333335,1600928075.5,1
8.0,66.7488888888889,0.29081,34.66,2234767.25,1600928075.64,1
8.0,57.17888888888889,0.29081,34.66,2243093.0,1600928075.78,1
8.0,25.706666666666663,,,2256029.25,1600928075.92,1
8.0,-32.041111111111114,0.293372,34.66,2267903.0,1600928076.06,1
8.0,-97.9588888888889,,,2249807.5,1600928076.2,1
8.0,-49.82111111111111,0.294653,34.66,2242017.0,1600928076.34,1
8.0,61.63444444444443,,,2247090.5,1600928076.48,1
8.0,59.643333333333345,0.294653,34.66,2255714.0,1600928076.62,1
8.0,47.17555555555556,0.294653,34.66,2268409.5,1600928076.76,1
8.0,-2.505555555555555,,,2281392.0,1600928076.9,1
8.0,-67.76444444444445,0.295934,34.66,2273559.75,1600928077.04,1
8.0,-122.05777777777777,,,2258327.6666666665,1600928077.18,1
8.0,25.70111111111111,0.294653,34.66,2260978.25,1600928077.32,1
8.0,78.9211111111111,,,2266784.3333333335,1600928077.46,1
8.0,68.30777777777777,0.295934,34.66,2278297.5,1600928077.6,1
8.0,26.336666666666666,,,2291088.6666666665,1600928077.74,1
8.0,-38.42,0.295934,34.66,2296248.25,1600928077.88,1
8.0,-106.45222222222223,0.294653,34.66,2276388.3333333335,1600928078.02,1
8.0,-51.742222222222225,,,2274692.0,1600928078.16,1
8.0,84.96777777777778,0.294653,34.68,2278992.6666666665,1600928078.3,1
8.0,85.08444444444443,,,2287840.5,1600928078.44,1
8.0,54.85444444444444,0.295934,34.68,2299594.0,1600928078.58,1
8.0,-5.134444444444444,,,2310699.25,1600928078.72,1
8.0,-76.24111111111112,0.292091,34.68,2302276.6666666665,1600928078.86,1
8.0,-144.6725,,,2284752.25,1600928079.0,1
8.0,-5.132222222222219,0.292091,34.68,2287415.6666666665,1600928079.14,1
8.0,76.62555555555555,0.293372,34.66,2295984.5,1600928079.28,1
8.0,71.95222222222222,,,2307681.6666666665,1600928079.42,1
8.0,45.68222222222222,0.293372,34.66,2319756.75,1600928079.56,1
8.0,-18.364444444444448,,,2327572.6666666665,1600928079.7,1
8.0,-88.25333333333334,0.294653,34.66,2306237.75,1600928079.84,1
8.0,-118.75888888888888,,,2300515.3333333335,1600928079.98,1
8.0,60.833333333333336,0.293372,34.66,2302969.75,1600928080.12,1
8.0,82.08,0.294653,34.66,2310079.0,1600928080.26,1
8.0,73.15444444444445,,,2320989.0,1600928080.4,1
8.0,23.17,0.293372,34.66,2331137.6666666665,1600928080.54,1
8.0,-50.89,,,2322603.0,1600928080.68,1
8.0,-136.93444444444447,0.295934,34.66,2301634.3333333335,1600928080.82,1
8.0,-58.51555555555555,,,2301762.5,1600928080.96,1
8.0,85.52111111111111,0.295934,34.66,2303394.6666666665,1600928081.1,1
8.0,81.94,,,2312466.5,1600928081.24,1
8.0,61.96888888888889,0.298496,34.66,2323996.3333333335,1600928081.38,1
8.0,-1.7266666666666666,0.297215,34.66,2332109.5,1600928081.52,1
8.0,-80.18333333333334,,,2308540.6666666665,1600928081.66,1
8.0,-160.3044444444444,0.297215,34.66,2296657.75,1600928081.8,1
8.0,21.524444444444445,,,2297548.0,1600928081.94,1
8.0,103.45555555555556,0.299777,34.66,2303446.25,1600928082.08,1
8.0,93.59333333333335,,,2314286.3333333335,1600928082.22,1
8.0,56.25222222222223,0.297215,34.66,2325117.75,1600928082.36,1
8.0,-13.094999999999999,,,2326197.6666666665,1600928082.5,1
8.0,-80.03666666666668,0.297215,34.66,2295582.0,1600928082.64,1
8.0,-143.43111111111114,0.297215,34.66,2290253.0,1600928082.78,1
8.0,51.0,,,2289917.75,1600928082.92,1
8.0,121.03,0.298496,34.66,2297587.0,1600928083.06,1
8.0,97.09444444444445,,,2309092.75,1600928083.2,1
8.0,24.10111111111111,0.297215,34.66,2313932.6666666665,1600928083.34,1
8.0,-58.67444444444445,,,2303457.25,1600928083.48,1
8.0,-124.49333333333334,0.294653,34.66,2280122.6666666665,1600928083.62,1
8.0,-171.1211111111111,0.293372,34.66,2277657.5,1600928083.76,1
8.0,50.614444444444445,,,2278672.6666666665,1600928083.9,1
8.0,130.02777777777777,0.295934,34.66,2288346.0,1600928084.04,1
8.0,130.99777777777774,,,2297674.6666666665,1600928084.18,1
8.0,104.77888888888889,0.294653,34.65,2303065.25,1600928084.32,1
8.0,64.04555555555557,,,2266270.6666666665,1600928084.46,1
8.0,-28.783333333333335,0.293372,34.65,2244260.0,1600928084.6,1
8.0,-148.58444444444444,,,2237632.3333333335,1600928084.74,1
8.0,-15.675555555555555,0.295934,34.65,2239052.5,1600928084.88,1
8.0,46.67111111111111,0.294653,34.65,2246630.6666666665,1600928085.02,1
8.0,39.96222222222222,,,2255129.75,1600928085.16,1
8.0,19.155555555555555,0.294653,34.68,2259227.3333333335,1600928085.3,1
8.0,-25.47888888888889,,,2218976.5,1600928085.44,1
8.0,-82.15777777777778,0.294653,34.68,2203331.3333333335,1600928085.58,1
8.0,-146.58666666666667,,,2198404.25,1600928085.72,1
8.0,-45.18111111111111,0.297215,34.68,2201267.0,1600928085.86,1
8.0,49.81,,,2209715.0,1600928086.0,1
8.0,60.00222222222222,0.298496,34.68,2219408.0,1600928086.14,1
8.0,59.69111111111111,0.298496,34.68,2219644.0,1600928086.28,1
8.0,25.988888888888887,,,2176230.0,1600928086.42,1
8.0,-24.465555555555557,0.298496,34.68,2157275.75,1600928086.56,1
8.0,-89.56333333333333,,,2151775.6666666665,1600928086.7,1
8.0,-85.98444444444445,0.297215,34.68,2156323.25,1600928086.84,1
8.0,61.25111111111111,,,2164788.0,1600928086.98,1
8.0,79.15888888888888,0.298496,34.68,2174867.5,1600928087.12,1
8.0,80.52555555555556,0.298496,34.65,2180240.6666666665,1600928087.26,1
8.0,53.22222222222223,,,2136148.0,1600928087.4,1
8.0,8.741111111111111,0.298496,34.65,2109454.6666666665,1600928087.54,1
8.0,-54.24666666666666,,,2100762.0,1600928087.68,1
8.0,-97.35333333333332,0.297215,34.65,2097073.6666666667,1600928087.82,1
8.0,8.231111111111112,,,2100520.75,1600928087.96,1
8.0,11.278888888888888,0.299777,34.65,2107605.0,1600928088.1,1
8.0,18.736666666666665,,,2116638.5,1600928088.24,1
8.0,-9.321111111111112,0.295934,34.66,2108622.0,1600928088.38,1
8.0,-40.03111111111112,0.294653,34.66,2096100.75,1600928088.52,1
8.0,-92.25666666666667,,,2100121.0,1600928088.66,1
8.0,-31.176666666666662,0.295934,34.66,2104778.75,1600928088.8,1
8.0,61.93444444444444,,,2116654.3333333335,1600928088.94,1
8.0,66.10111111111111,0.298496,34.66,2131361.75,1600928089.08,1
8.0,54.08444444444444,,,2147831.6666666665,1600928089.22,1
8.0,19.002222222222223,0.30234,34.66,2148241.5,1600928089.36,1
8.0,-25.0975,,,2127367.3333333335,1600928089.5,1
8.0,-89.78777777777776,0.301058,34.66,2127463.5,1600928089.64,1
8.0,-6.1711111111111085,0.304902,34.66,2133263.0,1600928089.78,1
8.0,41.60333333333334,,,2145597.25,1600928089.92,1
8.0,42.49333333333333,0.303621,34.66,2158892.0,1600928090.06,1
8.0,9.275555555555554,,,2172439.0,1600928090.2,1
8.0,-38.42777777777778,0.30234,34.65,2181060.6666666665,1600928090.34,1
8.0,-84.63888888888889,,,2168845.25,1600928090.48,1
8.0,-112.92333333333335,0.299777,34.65,2170810.6666666665,1600928090.62,1
8.0,30.63111111111111,0.301058,34.65,2177164.25,1600928090.76,1
8.0,71.00555555555555,,,2188819.3333333335,1600928090.9,1
8.0,63.29777777777778,0.299777,34.65,2202179.25,1600928091.04,1
8.0,27.314444444444444,,,2216065.6666666665,1600928091.18,1
8.0,-22.487777777777776,0.298496,34.65,2213609.75,1600928091.32,1
8.0,-79.88777777777779,,,2206689.3333333335,1600928091.46,1
8.0,-90.07444444444444,0.298496,34.65,2211055.5,1600928091.6,1
8.0,58.31777777777778,,,2217664.0,1600928091.74,1
8.0,84.59333333333333,0.301058,34.65,2228075.5,1600928091.88,1
8.0,83.2388888888889,0.299777,34.65,2238775.0,1600928092.02,1
8.0,43.593333333333334,,,2245902.0,1600928092.16,1
8.0,-22.91111111111111,0.313869,34.68,2233278.0,1600928092.3,1
8.0,-114.2888888888889,,,2228373.25,1600928092.44,1
8.0,-155.69888888888886,0.298496,34.68,2230980.6666666665,1600928092.58,1
8.0,20.33111111111111,,,2238151.75,1600928092.72,1
8.0,64.8888888888889,0.297215,34.68,2249278.0,1600928092.86,1
8.0,77.01875,,,2256251.75,1600928093.0,1
8.0,51.77333333333334,0.297215,34.68,2264331.6666666665,1600928093.14,1
8.0,-3.0422222222222226,0.295934,34.66,2256632.0,1600928093.28,1
8.0,-67.98555555555555,,,2257100.3333333335,1600928093.42,1
8.0,-113.93777777777778,0.294653,34.66,2260799.25,1600928093.56,1
8.0,37.56888888888889,,,2267762.0,1600928093.7,1
8.0,71.56222222222223,0.294653,34.66,2277232.0,1600928093.84,1
8.0,74.62222222222222,,,2286893.0,1600928093.98,1
8.0,40.056666666666665,0.294653,34.66,2287457.75,1600928094.12,1
8.0,-16.709999999999997,0.292091,34.65,2272845.6666666665,1600928094.26,1
8.0,-83.83666666666666,,,2270189.75,1600928094.4,1
8.0,-138.0011111111111,0.292091,34.65,2271123.6666666665,1600928094.54,1
8.0,27.702222222222222,,,2277396.5,1600928094.68,1
8.0,78.3288888888889,0.29081,34.65,2285738.3333333335,1600928094.82,1
8.0,76.23222222222222,,,2295738.25,1600928094.96,1
8.0,36.76222222222222,0.292091,34.65,2298174.0,1600928095.1,1
8.0,-25.95,,,2281886.3333333335,1600928095.24,1
8.0,-99.37444444444445,0.293372,34.66,2277532.75,1600928095.38,1
8.0,-158.36888888888888,0.29081,34.66,2278388.75,1600928095.52,1
8.0,34.215555555555554,,,2285102.0,1600928095.66,1
8.0,100.7511111111111,0.29081,34.66,2294136.25,1600928095.8,1
8.0,99.97666666666667,,,2303673.3333333335,1600928095.94,1
8.0,61.60222222222223,0.292091,34.66,2305702.0,1600928096.08,1
8.0,-3.512222222222223,,,2286662.6666666665,1600928096.22,1
8.0,-88.3488888888889,0.293372,34.65,2284247.0,1600928096.36,1
8.0,-177.69625000000002,,,2285278.6666666665,1600928096.5,1
8.0,-13.66222222222222,0.294653,34.65,2291493.0,1600928096.64,1
8.0,106.94999999999999,0.295934,34.65,2299909.0,1600928096.78,1
8.0,115.19888888888889,,,2308001.5,1600928096.92,1
8.0,81.04222222222221,0.294653,34.65,2306353.0,1600928097.06,1
8.0,18.212222222222223,,,2277663.0,1600928097.2,1
8.0,-50.77222222222222,0.293372,34.66,2268989.0,1600928097.34,1
8.0,-146.93666666666667,,,2267313.5,1600928097.48,1
8.0,-107.71333333333334,0.294653,34.66,2272244.3333333335,1600928097.62,1
8.0,84.32777777777777,0.310026,34.66,2279314.6666666665,1600928097.76,1
8.0,119.25888888888888,,,2288000.25,1600928097.9,1
8.0,109.10666666666667,0.293372,34.66,2293246.0,1600928098.04,1
8.0,50.02777777777778,,,2259753.5,1600928098.18,1
8.0,-16.821111111111108,0.294653,34.66,2241310.0,1600928098.32,1
8.0,-90.64333333333333,,,2235732.6666666665,1600928098.46,1
8.0,-149.55,0.294653,34.66,2238434.3333333335,1600928098.6,1
8.0,64.26333333333334,,,2245845.5,1600928098.74,1
8.0,142.71555555555554,0.297215,34.66,2254850.5,1600928098.88,1
8.0,136.05555555555557,0.292091,34.66,2259421.3333333335,1600928099.02,1
8.0,57.886666666666656,,,2226840.6666666665,1600928099.16,1
8.0,-51.202222222222225,0.29081,34.66,2201190.75,1600928099.3,1
8.0,-127.12777777777777,,,2187783.3333333335,1600928099.44,1
8.0,-208.07444444444445,0.292091,34.66,2188407.0,1600928099.58,1
8.0,-35.65222222222222,,,2199183.5,1600928099.72,1
8.0,102.23222222222222,0.293372,34.66,2210203.6666666665,1600928099.86,1
8.0,112.22874999999999,,,2222258.0,1600928100.0,1
8.0,91.29444444444442,0.29081,34.66,2202486.0,1600928100.14,1
8.0,25.66444444444444,0.292091,34.66,2172656.0,1600928100.28,1
8.0,-38.309999999999995,,,2161776.75,1600928100.42,1
8.0,-118.89555555555555,0.292091,34.66,2160062.0,1600928100.56,1
8.0,-136.49777777777777,,,2168987.5,1600928100.7,1
8.0,66.67777777777778,0.292091,34.66,2180759.0,1600928100.84,1
8.0,105.86444444444444,,,2193658.5,1600928100.98,1
8.0,95.05333333333334,0.292091,34.66,2202614.6666666665,1600928101.12,1
8.0,43.382222222222225,0.294653,34.65,2166005.5,1600928101.26,1
8.0,-17.43111111111111,,,2148663.6666666665,1600928101.4,1
8.0,-85.64333333333333,0.293372,34.65,2144391.5,1600928101.54,1
8.0,-168.9455555555556,,,2150651.5,1600928101.68,1
8.0,-25.781111111111116,0.298496,34.65,2162622.3333333335,1600928101.82,1
8.0,86.19777777777779,,,2175802.0,1600928101.96,1
8.0,90.83666666666666,0.298496,34.65,2192446.0,1600928102.1,1
8.0,65.33333333333333,,,2172753.3333333335,1600928102.24,1
8.0,8.007777777777777,0.297215,34.66,2149647.25,1600928102.38,1
8.0,-48.66555555555556,0.297215,34.66,2146818.3333333335,1600928102.52,1
8.0,-121.34666666666665,,,2152291.75,1600928102.66,1
8.0,-101.38111111111111,0.298496,34.66,2164672.0,1600928102.8,1
8.0,69.88444444444445,,,2178940.0,1600928102.94,1
8.0,91.05777777777779,0.297215,34.66,2194832.6666666665,1600928103.08,1
8.0,78.2811111111111,,,2197975.5,1600928103.22,1
8.0,26.37444444444445,0.313869,34.65,2167339.0,1600928103.36,1
8.0,-23.408749999999998,,,2156885.25,1600928103.5,1
8.0,-76.40444444444444,0.297215,34.65,2156556.6666666665,1600928103.64,1
8.0,-127.03444444444443,0.295934,34.65,2166413.5,1600928103.78,1
8.0,10.484444444444446,,,2179099.0,1600928103.92,1
8.0,50.65222222222222,0.298496,34.65,2192173.0,1600928104.06,1
8.0,62.632222222222225,,,2198612.3333333335,1600928104.2,1
8.0,30.884444444444448,0.299777,34.65,2183350.75,1600928104.34,1
8.0,-20.945555555555558,,,2170317.3333333335,1600928104.48,1
8.0,-81.82111111111111,0.294653,34.65,2170882.0,1600928104.62,1
8.0,-157.67555555555555,0.294653,34.65,2174632.0,1600928104.76,1
8.0,-17.545555555555556,,,2185810.75,1600928104.9,1
8.0,97.20555555555556,0.294653,34.65,2198345.6666666665,1600928105.04,1
8.0,101.07777777777777,,,2212859.0,1600928105.18,1
8.0,75.38666666666667,0.294653,34.65,2214004.6666666665,1600928105.32,1
8.0,24.216666666666665,,,2183181.0,1600928105.46,1
8.0,-30.04777777777777,0.294653,34.65,2174088.3333333335,1600928105.6,1
8.0,-105.03999999999999,,,2173940.25,1600928105.74,1
8.0,-66.85888888888888,0.293372,34.65,2183107.25,1600928105.88,1
8.0,43.48,0.294653,34.65,2193203.3333333335,1600928106.02,1
8.0,66.44555555555556,,,2203235.0,1600928106.16,1
8.0,66.21333333333332,0.297215,34.65,2209997.5,1600928106.3,1
8.0,26.637777777777774,,,2176149.25,1600928106.44,1
8.0,-23.54888888888889,0.294653,34.65,2162439.0,1600928106.58,1
8.0,-85.94444444444444,,,2158652.25,1600928106.72,1
8.0,-115.34666666666668,0.294653,34.65,2163555.3333333335,1600928106.86,1
8.0,37.88375,,,2172710.25,1600928107.0,1
8.0,85.97888888888889,0.294653,34.65,2183835.6666666665,1600928107.14,1
8.0,84.99444444444445,0.294653,34.66,2190843.5,1600928107.28,1
8.0,47.607777777777784,,,2157499.0,1600928107.42,1
8.0,-0.07444444444444463,0.293372,34.66,2133971.5,1600928107.56,1
8.0,-53.058888888888895,,,2124397.0,1600928107.7,1
8.0,-121.25111111111111,0.295934,34.66,2125598.0,1600928107.84,1
8.0,-74.23555555555555,,,2134031.5,1600928107.98,1
8.0,58.87777777777779,0.297215,34.66,2145922.25,1600928108.12,1
8.0,83.93222222222224,0.299777,34.65,2158768.0,1600928108.26,1
8.0,77.8488888888889,,,2140132.0,1600928108.4,1
8.0,41.55444444444444,0.298496,34.65,2108422.3333333335,1600928108.54,1
8.0,7.942222222222223,,,2100080.75,1600928108.68,1
8.0,-65.31888888888889,0.299777,34.65,2100401.0,1600928108.82,1
8.0,-148.20777777777778,,,2109888.25,1600928108.96,1
8.0,-26.737777777777776,0.301058,34.65,2121842.6666666665,1600928109.1,1
8.0,55.07000000000001,,,2136953.75,1600928109.24,1
8.0,68.24888888888887,0.301058,34.66,2142535.3333333335,1600928109.38,1
8.0,46.60222222222222,0.301058,34.66,2115328.6666666665,1600928109.52,1
8.0,4.471111111111112,,,2104765.25,1600928109.66,1
8.0,-42.718888888888884,0.301058,34.66,2105592.0,1600928109.8,1
8.0,-101.10555555555555,,,2116556.0,1600928109.94,1
8.0,-22.076666666666668,0.301058,34.66,2130354.75,1600928110.08,1
8.0,66.91222222222223,,,2145267.6666666665,1600928110.22,1
8.0,63.456666666666656,0.301058,34.65,2160307.25,1600928110.36,1
8.0,24.134999999999998,,,2146499.3333333335,1600928110.5,1
8.0,-22.27,0.301058,34.65,2130871.6666666665,1600928110.64,1
8.0,-61.58444444444444,0.298496,34.65,2122598.0,1600928110.78,1
8.0,-109.1588888888889,,,2127745.6666666665,1600928110.92,1
8.0,1.8888888888888873,0.298496,34.65,2140843.5,1600928111.06,1
8.0,65.30333333333333,,,2156189.0,1600928111.2,1
8.0,59.21333333333333,0.299777,34.65,2172602.5,1600928111.34,1
8.0,35.04666666666667,,,2185352.75,1600928111.48,1
8.0,-9.764444444444445,0.299777,34.65,2165661.3333333335,1600928111.62,1
8.0,-62.97777777777779,0.298496,34.65,2157388.75,1600928111.76,1
8.0,-104.78666666666668,,,2160044.3333333335,1600928111.9,1
8.0,22.39,0.298496,34.65,2168164.3333333335,1600928112.04,1
8.0,66.36111111111111,,,2180549.75,1600928112.18,1
8.0,54.887777777777785,0.301058,34.65,2193439.6666666665,1600928112.32,1
8.0,19.681111111111115,,,2205630.25,1600928112.46,1
8.0,-23.20444444444444,0.298496,34.65,2197811.0,1600928112.6,1
8.0,-76.61666666666666,,,2182626.25,1600928112.74,1
8.0,-74.27777777777777,0.298496,34.65,2182044.3333333335,1600928112.88,1
8.0,40.084444444444436,0.298496,34.65,2185264.0,1600928113.02,1
8.0,69.13555555555556,,,2194011.6666666665,1600928113.16,1
8.0,64.56555555555558,0.299777,34.65,2204392.75,1600928113.3,1
8.0,14.66,,,2214734.6666666665,1600928113.44,1
8.0,-43.961111111111116,0.301058,34.65,2198015.25,1600928113.58,1
8.0,-107.3477777777778,,,2185369.3333333335,1600928113.72,1
8.0,-49.645555555555546,0.299777,34.65,2185441.0,1600928113.86,1
8.0,58.035000000000004,,,2189987.3333333335,1600928114.0,1
8.0,74.7622222222222,0.303621,34.65,2199274.75,1600928114.14,1
8.0,65.26777777777778,0.304902,34.65,2209205.0,1600928114.28,1
8.0,23.218888888888884,,,2212163.75,1600928114.42,1
8.0,-23.04111111111111,0.30234,34.65,2187329.6666666665,1600928114.56,1
8.0,-86.77444444444444,,,2176486.75,1600928114.7,1
8.0,-40.07333333333333,0.304902,34.65,2171468.0,1600928114.84,1
8.0,60.92888888888889,,,2179929.0,1600928114.98,1
8.0,47.31444444444444,0.306183,34.65,2195587.6666666665,1600928115.12,1
8.0,37.51555555555555,0.306183,34.65,2207200.25,1600928115.26,1
8.0,6.308888888888891,,,2204227.6666666665,1600928115.4,1
8.0,-34.53999999999999,0.306183,34.65,2176198.75,1600928115.54,1
8.0,-93.16555555555556,,,2167977.3333333335,1600928115.68,1
8.0,-31.966666666666665,0.306183,34.65,2169094.25,1600928115.82,1
8.0,56.91333333333333,,,2177035.0,1600928115.96,1
8.0,61.52111111111112,0.304902,34.65,2188526.25,1600928116.1,1
8.0,47.093333333333334,,,2201670.0,1600928116.24,1
8.0,2.8677777777777784,0.304902,34.65,2191686.25,1600928116.38,1
8.0,-49.12666666666667,0.306183,34.65,2168477.6666666665,1600928116.52,1
8.0,-93.35555555555555,,,2165400.5,1600928116.66,1
8.0,13.305555555555555,0.306183,34.65,2168024.6666666665,1600928116.8,1
8.0,61.69888888888889,,,2175797.75,1600928116.94,1
8.0,65.17666666666668,0.303621,34.65,2185655.3333333335,1600928117.08,1
8.0,40.99666666666667,,,2199590.0,1600928117.22,1
8.0,-35.12777777777778,0.303621,34.63,2188622.0,1600928117.36,1
8.0,-88.55375000000001,,,2167643.25,1600928117.5,1
8.0,-99.57444444444445,0.303621,34.63,2163688.6666666665,1600928117.64,1
8.0,22.937777777777782,0.303621,34.63,2167715.5,1600928117.78,1
8.0,62.33555555555555,,,2178356.3333333335,1600928117.92,1
8.0,58.69444444444444,0.303621,34.63,2190717.75,1600928118.06,1
8.0,24.04222222222222,,,2204403.6666666665,1600928118.2,1
8.0,-19.546666666666667,0.303621,34.65,2192108.75,1600928118.34,1
8.0,-68.96333333333334,,,2172583.6666666665,1600928118.48,1
8.0,-58.05888888888889,0.303621,34.65,2172342.5,1600928118.62,1
8.0,39.918888888888894,0.303621,34.65,2177078.0,1600928118.76,1
8.0,57.20333333333334,,,2188110.75,1600928118.9,1
8.0,51.6,0.306183,34.65,2200720.3333333335,1600928119.04,1
8.0,13.806666666666667,,,2209630.25,1600928119.18,1
8.0,-36.96333333333334,0.303621,34.63,2186110.6666666665,1600928119.32,1
8.0,-85.94555555555556,,,2175082.5,1600928119.46,1
8.0,-32.392222222222216,0.303621,34.63,2174916.3333333335,1600928119.6,1
8.0,39.254444444444445,,,2181909.0,1600928119.74,1
8.0,48.50888888888889,0.304902,34.63,2193231.6666666665,1600928119.88,1
8.0,35.964444444444446,0.304902,34.63,2205391.5,1600928120.02,1
8.0,-0.5900000000000003,,,2207102.6666666665,1600928120.16,1
8.0,-34.91555555555556,0.304902,34.65,2181332.25,1600928120.3,1
8.0,-80.83,,,2175583.6666666665,1600928120.44,1
8.0,-10.15,0.307464,34.65,2178502.5,1600928120.58,1
8.0,43.398888888888884,,,2189219.0,1600928120.72,1
8.0,44.07222222222222,0.307464,34.65,2199905.0,1600928120.86,1
8.0,34.2675,,,2212905.6666666665,1600928121.0,1
8.0,4.358888888888888,0.308745,34.65,2208832.0,1600928121.14,1
8.0,-34.22111111111111,0.310026,34.63,2190456.6666666665,1600928121.28,1
8.0,-76.44444444444444,,,2189943.0,1600928121.42,1
8.0,10.594444444444445,0.310026,34.63,2193015.6666666665,1600928121.56,1
8.0,56.2011111111111,,,2201844.0,1600928121.7,1
8.0,55.42444444444445,0.310026,34.63,2211545.3333333335,1600928121.84,1
8.0,20.41,,,2224552.25,1600928121.98,1
8.0,-39.06111111111111,0.311307,34.63,2213989.0,1600928122.12,1
8.0,-73.81666666666666,0.311307,34.65,2209537.75,1600928122.26,1
8.0,-91.03777777777778,,,2217559.6666666665,1600928122.4,1
8.0,16.224444444444444,0.32668,34.65,2226968.0,1600928122.54,1
8.0,43.44444444444444,,,2241841.5,1600928122.68,1
8.0,48.287777777777784,0.311307,34.65,2255172.6666666665,1600928122.82,1
8.0,20.90222222222222,,,2266969.25,1600928122.96,1
8.0,-23.764444444444443,0.312588,34.65,2255708.0,1600928123.1,1
8.0,-75.31777777777776,,,2252740.75,1600928123.24,1
8.0,-44.04999999999999,0.312588,34.63,2256739.3333333335,1600928123.38,1
8.0,45.23444444444444,0.311307,34.63,2264835.75,1600928123.52,1
8.0,56.29,,,2274399.3333333335,1600928123.66,1
8.0,47.97777777777778,0.310026,34.63,2283813.0,1600928123.8,1
8.0,9.595555555555556,,,2289555.0,1600928123.94,1
8.0,-36.82888888888888,0.308745,34.63,2274220.25,1600928124.08,1
8.0,-88.84444444444445,,,2270749.6666666665,1600928124.22,1
8.0,-3.4411111111111103,0.308745,34.63,2272630.75,1600928124.36,1
8.0,45.584999999999994,,,2278437.3333333335,1600928124.5,1
8.0,50.09444444444445,0.308745,34.63,2287558.25,1600928124.64,1
8.0,36.077777777777776,0.308745,34.63,2296614.0,1600928124.78,1
8.0,-11.020000000000001,,,2295229.75,1600928124.92,1
8.0,-64.38000000000001,0.308745,34.63,2280035.6666666665,1600928125.06,1
8.0,-89.66555555555556,,,2278420.75,1600928125.2,1
8.0,26.1,0.307464,34.63,2280182.0,1600928125.34,1
8.0,60.44888888888889,,,2286867.25,1600928125.48,1
8.0,59.69777777777777,0.306183,34.63,2295320.3333333335,1600928125.62,1
8.0,28.037777777777777,0.307464,34.63,2303350.5,1600928125.76,1
8.0,-24.76555555555556,,,2292294.3333333335,1600928125.9,1
8.0,-89.63888888888889,0.311307,34.63,2279896.5,1600928126.04,1
8.0,-42.95333333333334,,,2279100.0,1600928126.18,1
8.0,56.507777777777775,0.311307,34.63,2281683.0,1600928126.32,1
8.0,82.66222222222223,,,2286431.6666666665,1600928126.46,1
8.0,62.0111111111111,0.313869,34.63,2288668.75,1600928126.6,1
8.0,-2.1277777777777778,,,2291048.3333333335,1600928126.74,1
8.0,-74.20666666666665,0.312588,34.63,2287002.0,1600928126.88,1
8.0,-112.9111111111111,0.312588,34.63,2282822.0,1600928127.02,1
8.0,26.134444444444444,,,2290458.25,1600928127.16,1
8.0,51.98444444444445,0.313869,34.65,2299354.3333333335,1600928127.3,1
8.0,51.556666666666665,,,2309798.75,1600928127.44,1
8.0,19.20111111111111,0.316432,34.65,2319427.3333333335,1600928127.58,1
8.0,-35.903333333333336,,,2314906.0,1600928127.72,1
8.0,-95.93444444444445,0.315151,34.65,2295430.0,1600928127.86,1
8.0,2.186250000000003,,,2292295.25,1600928128.0,1
8.0,50.904444444444444,0.316432,34.65,2291909.0,1600928128.14,1
8.0,45.17333333333334,0.317713,34.63,2299769.75,1600928128.28,1
8.0,13.711111111111112,,,2309449.3333333335,1600928128.42,1
8.0,-50.32111111111111,0.318994,34.63,2317255.5,1600928128.56,1
8.0,-78.26888888888888,,,2298940.3333333335,1600928128.7,1
8.0,48.23777777777778,0.317713,34.63,2283665.75,1600928128.84,1
8.0,55.660000000000004,,,2280541.3333333335,1600928128.98,1
8.0,37.128888888888895,0.315151,34.63,2282540.0,1600928129.12,1
8.0,-21.46888888888889,0.316432,34.63,2289735.6666666665,1600928129.26,1
8.0,-87.76777777777778,,,2297895.5,1600928129.4,1
8.0,26.004444444444445,0.317713,34.63,2296784.0,1600928129.54,1
8.0,63.92111111111111,,,2270415.0,1600928129.68,1
8.0,47.85222222222222,0.322837,34.63,2263069.6666666665,1600928129.82,1
8.0,5.37888888888889,,,2261514.25,1600928129.96,1
8.0,-65.89111111111112,0.325399,34.63,2267532.0,1600928130.1,1
8.0,-58.658888888888896,,,2276182.5,1600928130.24,1
8.0,72.07333333333334,0.32668,34.61,2280496.0,1600928130.38,1
8.0,86.25666666666666,0.32668,34.61,2252151.0,1600928130.52,1
8.0,61.38333333333334,,,2241320.0,1600928130.66,1
8.0,6.757777777777777,0.324118,34.61,2237984.5,1600928130.8,1
8.0,-48.21444444444445,,,2239046.6666666665,1600928130.94,1
8.0,-100.73333333333333,0.321556,34.61,2249696.25,1600928131.08,1
8.0,-7.202222222222222,,,2242109.6666666665,1600928131.22,1
8.0,64.86111111111111,0.320275,34.63,2216524.0,1600928131.36,1
8.0,59.3875,,,2214451.0,1600928131.5,1
8.0,40.22222222222222,0.320275,34.63,2213877.75,1600928131.64,1
8.0,3.9677777777777785,0.317713,34.63,2221856.0,1600928131.78,1
8.0,-30.242222222222225,,,2221692.0,1600928131.92,1
8.0,-71.5888888888889,0.318994,34.63,2190008.0,1600928132.06,1
8.0,-19.96888888888889,,,2184432.75,1600928132.2,1
8.0,53.10666666666666,0.317713,34.63,2185932.3333333335,1600928132.34,1
8.0,55.03111111111111,,,2195993.5,1600928132.48,1
8.0,36.77222222222222,0.317713,34.63,2209569.6666666665,1600928132.62,1
8.0,-11.846666666666668,0.318994,34.63,2191401.75,1600928132.76,1
8.0,-60.36333333333333,,,2160918.6666666665,1600928132.9,1
8.0,-72.71333333333334,0.316432,34.63,2158217.0,1600928133.04,1
8.0,-48.59444444444444,,,2161906.3333333335,1600928133.18,1
8.0,20.216666666666665,0.316432,34.61,2174233.25,1600928133.32,1
8.0,27.08,,,2188852.3333333335,1600928133.46,1
8.0,19.49,0.315151,34.61,2198780.25,1600928133.6,1
8.0,5.385555555555555,,,2168659.3333333335,1600928133.74,1
8.0,-16.024444444444445,0.313869,34.61,2157032.0,1600928133.88,1
8.0,-41.11777777777778,0.313869,34.61,2160372.3333333335,1600928134.02,1
8.0,-35.01,,,2170662.0,1600928134.16,1
8.0,25.776666666666667,0.316432,34.63,2185662.0,1600928134.3,1
8.0,37.88333333333333,,,2202225.0,1600928134.44,1
8.0,31.08888888888889,0.311307,34.63,2217212.0,1600928134.58,1
8.0,-10.381111111111112,,,2205896.5,1600928134.72,1
8.0,-47.37222222222223,0.311307,34.63,2201016.6666666665,1600928134.86,1
8.0,-63.84375,,,2207592.5,1600928135.0,1
8.0,-61.25555555555556,0.311307,34.63,2217665.3333333335,1600928135.14,1
8.0,9.606666666666666,0.312588,34.61,2230995.25,1600928135.28,1
8.0,27.174444444444443,,,2244985.0,1600928135.42,1
8.0,28.36,0.311307,34.61,2258624.5,1600928135.56,1
8.0,15.606666666666667,,,2260011.3333333335,1600928135.7,1
8.0,-13.924444444444443,0.311307,34.61,2260454.5,1600928135.84,1
8.0,-43.196666666666665,,,2268383.0,1600928135.98,1
8.0,-45.37777777777777,0.310026,34.61,2277551.0,1600928136.12,1
8.0,44.72,0.313869,34.61,2288690.0,1600928136.26,1
8.0,63.53888888888889,,,2300354.75,1600928136.4,1
8.0,24.721111111111114,0.311307,34.61,2311436.3333333335,1600928136.54,1
8.0,-27.23222222222222,,,2314755.0,1600928136.68,1
8.0,-54.696666666666665,0.316432,34.61,2313202.0,1600928136.82,1
8.0,-83.38111111111112,,,2319593.5,1600928136.96,1
8.0,-51.83777777777778,0.312588,34.61,2326427.0,1600928137.1,1
8.0,31.709999999999997,,,2334466.25,1600928137.24,1
8.0,49.07888888888888,0.316432,34.63,2343110.6666666665,1600928137.38,1
8.0,45.632222222222225,0.316432,34.63,2351904.25,1600928137.52,1
8.0,5.930000000000001,,,2353815.6666666665,1600928137.66,1
8.0,-50.27666666666667,0.313869,34.63,2349530.25,1600928137.8,1
8.0,-105.4511111111111,,,2352765.3333333335,1600928137.94,1
8.0,1.5166666666666688,0.315151,34.63,2357419.75,1600928138.08,1
8.0,63.47555555555555,,,2363903.0,1600928138.22,1
8.0,69.01777777777778,0.313869,34.61,2370834.25,1600928138.36,1
8.0,38.2575,,,2377554.6666666665,1600928138.5,1
8.0,-17.084444444444443,0.315151,34.61,2374738.0,1600928138.64,1
8.0,-90.88222222222221,0.313869,34.61,2366724.6666666665,1600928138.78,1
8.0,-87.41333333333334,,,2367391.25,1600928138.92,1
8.0,73.25666666666666,0.315151,34.61,2369991.3333333335,1600928139.06,1
8.0,94.97999999999999,,,2375705.25,1600928139.2,1
8.0,89.72333333333333,0.313869,34.61,2382023.0,1600928139.34,1
8.0,24.997777777777777,,,2387779.0,1600928139.48,1
8.0,-55.074444444444445,0.313869,34.61,2377907.6666666665,1600928139.62,1
8.0,-130.43666666666664,0.316432,34.61,2369270.5,1600928139.76,1
8.0,13.741111111111113,,,2368508.0,1600928139.9,1
8.0,87.85444444444444,0.315151,34.61,2371258.0,1600928140.04,1
8.0,90.24777777777777,,,2377449.0,1600928140.18,1
8.0,43.69111111111111,0.312588,34.61,2383827.25,1600928140.32,1
8.0,-31.06222222222222,,,2384923.6666666665,1600928140.46,1
8.0,-113.56888888888889,0.311307,34.61,2363623.0,1600928140.6,1
8.0,-61.66222222222224,,,2355006.0,1600928140.74,1
8.0,87.81,0.312588,34.61,2352489.5,1600928140.88,1
8.0,96.91111111111111,0.312588,34.61,2353027.3333333335,1600928141.02,1
8.0,75.37111111111113,,,2364033.5,1600928141.16,1
8.0,10.797777777777776,0.311307,34.63,2373609.6666666665,1600928141.3,1
8.0,-62.49555555555555,,,2359340.25,1600928141.44,1
8.0,-119.22222222222223,0.311307,34.63,2340800.0,1600928141.58,1
8.0,34.114444444444445,,,2336350.5,1600928141.72,1
8.0,79.74555555555555,0.311307,34.63,2337252.3333333335,1600928141.86,1
8.0,71.90125,,,2344566.0,1600928142.0,1
8.0,42.15222222222222,0.311307,34.63,2352418.0,1600928142.14,1
8.0,-15.24888888888889,0.313869,34.61,2354491.3333333335,1600928142.28,1
8.0,-78.0611111111111,,,2327194.25,1600928142.42,1
8.0,-71.60333333333334,0.312588,34.61,2315214.75,1600928142.56,1
8.0,54.63666666666668,,,2313706.0,1600928142.7,1
8.0,59.044444444444444,0.316432,34.61,2322755.0,1600928142.84,1
8.0,47.846666666666664,,,2331181.25,1600928142.98,1
8.0,8.619999999999997,0.317713,34.61,2342157.0,1600928143.12,1
8.0,-44.70222222222222,0.317713,34.63,2329845.75,1600928143.26,1
8.0,-94.44222222222223,,,2307962.75,1600928143.4,1
8.0,0.1733333333333336,0.318994,34.63,2305733.3333333335,1600928143.54,1
8.0,54.72777777777778,,,2307922.3333333335,1600928143.68,1
8.0,52.287777777777784,0.317713,34.63,2316948.75,1600928143.82,1
8.0,43.38666666666667,,,2326749.0,1600928143.96,1
8.0,-16.87222222222222,0.317713,34.63,2329985.0,1600928144.1,1
8.0,-58.01222222222222,,,2301307.3333333335,1600928144.24,1
8.0,-59.69222222222221,0.317713,34.61,2290303.0,1600928144.38,1
8.0,-1.4811111111111113,0.316432,34.61,2288169.3333333335,1600928144.52,1
8.0,-1.6033333333333333,,,2293527.25,1600928144.66,1
8.0,13.716666666666667,0.315151,34.61,2304716.6666666665,1600928144.8,1
8.0,-11.413333333333334,,,2316902.5,1600928144.94,1
8.0,-55.6188888888889,0.316432,34.61,2299343.0,1600928145.08,1
8.0,-95.54222222222222,,,2274004.6666666665,1600928145.22,1
8.0,13.756666666666668,0.318994,34.63,2271105.3333333335,1600928145.36,1
8.0,54.76625,,,2271592.0,1600928145.5,1
8.0,55.46,0.312588,34.63,2281546.0,1600928145.64,1
8.0,31.454444444444448,0.312588,34.63,2293160.25,1600928145.78,1
8.0,-20.434444444444445,,,2302101.6666666665,1600928145.92,1
8.0,-72.09444444444445,0.312588,34.63,2273870.75,1600928146.06,1
8.0,-33.458888888888886,,,2262168.3333333335,1600928146.2,1
8.0,56.07333333333333,0.312588,34.61,2262173.5,1600928146.34,1
8.0,59.71444444444445,,,2268353.0,1600928146.48,1
8.0,37.196666666666665,0.312588,34.61,2280535.75,1600928146.62,1
8.0,-33.123333333333335,0.311307,34.61,2292962.6666666665,1600928146.76,1
8.0,-79.46111111111111,,,2283217.0,1600928146.9,1
8.0,-99.24666666666667,0.311307,34.61,2256294.0,1600928147.04,1
8.0,27.628888888888888,,,2253355.25,1600928147.18,1
8.0,64.29444444444445,0.312588,34.59,2254710.3333333335,1600928147.32,1
8.0,63.15111111111111,,,2263924.75,1600928147.46,1
8.0,29.45111111111111,0.312588,34.59,2274393.0,1600928147.6,1
8.0,-22.563333333333333,,,2275370.0,1600928147.74,1
8.0,-80.72444444444444,0.313869,34.59,2238670.6666666665,1600928147.88,1
8.0,-33.35888888888889,0.315151,34.59,2224837.5,1600928148.02,1
8.0,63.091111111111104,,,2220078.6666666665,1600928148.16,1
8.0,72.72777777777777,0.316432,34.61,2223917.25,1600928148.3,1
8.0,55.13777777777778,,,2231478.6666666665,1600928148.44,1
8.0,-5.818888888888889,0.315151,34.61,2239363.0,1600928148.58,1
8.0,-74.57,,,2209843.0,1600928148.72,1
8.0,-91.18777777777777,0.318994,34.61,2181722.0,1600928148.86,1
8.0,25.408749999999998,,,2172689.0,1600928149.0,1
8.0,56.769999999999996,0.317713,34.61,2171728.0,1600928149.14,1
8.0,61.26888888888888,0.318994,34.61,2178786.6666666665,1600928149.28,1
8.0,26.986666666666668,,,2187848.5,1600928149.42,1
8.0,-31.561111111111114,0.321556,34.61,2184904.3333333335,1600928149.56,1
8.0,-92.48666666666666,,,2148744.0,1600928149.7,1
8.0,-32.69777777777778,0.320275,34.61,2136957.6666666665,1600928149.84,1
8.0,44.15555555555555,,,2134946.5,1600928149.98,1
8.0,51.836666666666666,0.320275,34.61,2141943.0,1600928150.12,1
8.0,37.19888888888889,0.318994,34.61,2152833.0,1600928150.26,1
8.0,-5.344444444444445,,,2165688.0,1600928150.4,1
8.0,-54.31999999999999,0.320275,34.61,2150079.25,1600928150.54,1
8.0,-83.99555555555555,,,2133554.0,1600928150.68,1
8.0,14.212222222222222,0.320275,34.61,2132282.0,1600928150.82,1
8.0,53.27111111111111,,,2137514.6666666665,1600928150.96,1
8.0,50.43222222222222,0.317713,34.61,2149416.0,1600928151.1,1
8.0,19.204444444444444,,,2163418.6666666665,1600928151.24,1
8.0,-22.20111111111111,0.318994,34.59,2167358.75,1600928151.38,1
8.0,-69.19333333333333,0.316432,34.59,2153494.6666666665,1600928151.52,1
8.0,-63.25444444444445,,,2155049.5,1600928151.66,1
8.0,30.022222222222222,0.316432,34.59,2160994.6666666665,1600928151.8,1
8.0,54.576666666666675,,,2173031.0,1600928151.94,1
8.0,46.101111111111116,0.315151,34.59,2186480.3333333335,1600928152.08,1
8.0,16.924444444444443,,,2198908.25,1600928152.22,1
8.0,-20.242222222222225,0.316432,34.59,2190494.3333333335,1600928152.36,1
8.0,-69.0075,,,2186276.75,1600928152.5,1
8.0,-58.912222222222226,0.313869,34.59,2190410.3333333335,1600928152.64,1
8.0,31.784444444444446,0.317713,34.59,2197019.5,1600928152.78,1
8.0,52.56444444444445,,,2208143.0,1600928152.92,1
8.0,48.56111111111111,0.315151,34.59,2222451.5,1600928153.06,1
8.0,27.954444444444444,,,2230515.6666666665,1600928153.2,1
8.0,0.9611111111111114,0.316432,34.61,2224776.25,1600928153.34,1
8.0,-76.97333333333333,,,2227270.0,1600928153.48,1
8.0,-70.55,0.316432,34.61,2231677.5,1600928153.62,1
8.0,16.052222222222223,0.315151,34.61,2233227.0,1600928153.76,1
8.0,34.96222222222222,,,2243572.5,1600928153.9,1
8.0,33.67444444444445,0.316432,34.61,2257079.3333333335,1600928154.04,1
8.0,4.806666666666667,,,2259684.5,1600928154.18,1
8.0,-32.13111111111111,0.316432,34.61,2251807.0,1600928154.32,1
8.0,-82.99,,,2254104.5,1600928154.46,1
8.0,-10.37,0.317713,34.61,2260217.0,1600928154.6,1
8.0,41.623333333333335,,,2268755.25,1600928154.74,1
8.0,49.11666666666666,0.320275,34.61,2278539.6666666665,1600928154.88,1
8.0,35.617777777777775,0.321556,34.61,2287849.0,1600928155.02,1
8.0,-1.5622222222222224,,,2283536.0,1600928155.16,1
8.0,-53.15555555555556,0.321556,34.61,2273726.5,1600928155.3,1
8.0,-89.42444444444443,,,2273662.6666666665,1600928155.44,1
8.0,10.052222222222223,0.320275,34.61,2277355.0,1600928155.58,1
8.0,50.98222222222223,,,2285411.6666666665,1600928155.72,1
8.0,58.43222222222222,0.321556,34.61,2293863.5,1600928155.86,1
8.0,37.4025,,,2302279.3333333335,1600928156.0,1
8.0,-7.675555555555554,0.320275,34.61,2295165.5,1600928156.14,1
8.0,-64.05555555555556,0.321556,34.61,2288498.0,1600928156.28,1
8.0,-79.00444444444445,,,2290021.0,1600928156.42,1
8.0,27.695555555555554,0.322837,34.61,2293899.0,1600928156.56,1
8.0,49.263333333333335,,,2301143.5,1600928156.7,1
8.0,46.94222222222223,0.322837,34.61,2309801.0,1600928156.84,1
8.0,8.370000000000001,,,2317004.75,1600928156.98,1
8.0,-44.35333333333333,0.322837,34.61,2305488.6666666665,1600928157.12,1
8.0,-98.92555555555556,0.322837,34.61,2299163.5,1600928157.26,1
8.0,6.243333333333334,,,2299799.6666666665,1600928157.4,1
8.0,49.592222222222226,0.324118,34.61,2304670.25,1600928157.54,1
8.0,52.86111111111111,,,2312587.6666666665,1600928157.68,1
8.0,15.494444444444447,0.322837,34.61,2321232.75,1600928157.82,1
8.0,-44.45666666666667,,,2324404.3333333335,1600928157.96,1
8.0,-108.25444444444446,0.321556,34.61,2309541.75,1600928158.1,1
8.0,8.134444444444444,,,2305466.3333333335,1600928158.24,1
8.0,71.86222222222221,0.33821,34.59,2306970.75,1600928158.38,1
8.0,74.52444444444444,0.322837,34.59,2312739.6666666665,1600928158.52,1
8.0,43.541111111111114,,,2321128.25,1600928158.66,1
8.0,-8.270000000000001,0.324118,34.59,2330203.3333333335,1600928158.8,1
8.0,-111.88333333333334,,,2324903.0,1600928158.94,1
8.0,-24.968888888888888,0.325399,34.59,2305987.3333333335,1600928159.08,1
8.0,54.94222222222222,,,2302959.25,1600928159.22,1
8.0,55.78666666666666,0.32668,34.59,2303932.0,1600928159.36,1
8.0,36.74,,,2310663.0,1600928159.5,1
8.0,-12.093333333333334,0.325399,34.59,2319643.0,1600928159.64,1
8.0,-75.49222222222221,0.325399,34.59,2322443.75,1600928159.78,1
8.0,-89.70333333333335,,,2300415.0,1600928159.92,1
8.0,61.75222222222222,0.325399,34.59,2293831.25,1600928160.06,1
8.0,93.86888888888888,,,2292014.0,1600928160.2,1
8.0,80.55222222222221,0.325399,34.59,2298267.75,1600928160.34,1
8.0,28.37,,,2306203.0,1600928160.48,1
8.0,-30.258888888888887,0.327962,34.59,2306291.5,1600928160.62,1
8.0,-91.40888888888887,0.329243,34.59,2274855.0,1600928160.76,1
8.0,13.724444444444442,,,2260813.0,1600928160.9,1
8.0,62.58555555555555,0.330524,34.59,2255113.6666666665,1600928161.04,1
8.0,49.97888888888889,,,2257775.75,1600928161.18,1
8.0,20.814444444444444,0.331805,34.57,2263424.6666666665,1600928161.32,1
8.0,-26.475555555555555,,,2266888.0,1600928161.46,1
8.0,-76.73333333333333,0.329243,34.57,2235708.3333333335,1600928161.6,1
8.0,-75.83222222222223,,,2212411.25,1600928161.74,1
8.0,41.114444444444445,0.333086,34.57,2204482.3333333335,1600928161.88,1
8.0,66.92333333333335,0.330524,34.57,2205860.25,1600928162.02,1
8.0,52.88333333333334,,,2213023.3333333335,1600928162.16,1
8.0,14.056666666666665,0.330524,34.59,2221728.0,1600928162.3,1
8.0,-28.765555555555554,,,2205700.6666666665,1600928162.44,1
8.0,-81.52,0.330524,34.59,2172318.5,1600928162.58,1
8.0,-29.507777777777783,,,2161634.3333333335,1600928162.72,1
8.0,45.504444444444445,0.330524,34.59,2160864.25,1600928162.86,1
8.0,48.4975,,,2168902.0,1600928163.0,1
8.0,34.245555555555555,0.330524,34.59,2178988.0,1600928163.14,1
8.0,0.36999999999999944,0.329243,34.61,2187011.6666666665,1600928163.28,1
8.0,-38.16555555555556,,,2156168.25,1600928163.42,1
8.0,-81.05777777777777,0.329243,34.61,2137912.0,1600928163.56,1
8.0,-7.052222222222221,,,2139295.75,1600928163.7,1
8.0,43.084444444444436,0.330524,34.61,2149514.0,1600928163.84,1
8.0,38.13333333333333,,,2162766.25,1600928163.98,1
8.0,20.842222222222222,0.327962,34.61,2176939.0,1600928164.12,1
8.0,-12.336666666666666,0.32668,34.59,2174518.0,1600928164.26,1
8.0,-47.3,,,2158287.6666666665,1600928164.4,1
8.0,-57.64777777777778,0.32668,34.59,2158571.5,1600928164.54,1
8.0,19.35,,,2165393.0,1600928164.68,1
8.0,32.29222222222222,0.32668,34.59,2178770.0,1600928164.82,1
8.0,28.555555555555557,,,2194500.3333333335,1600928164.96,1
8.0,2.5388888888888888,0.327962,34.59,2209855.75,1600928165.1,1
8.0,-32.474444444444444,,,2206547.3333333335,1600928165.24,1
8.0,-76.34444444444445,0.327962,34.59,2205137.5,1600928165.38,1
8.0,-25.97666666666667,0.327962,34.59,2210173.6666666665,1600928165.52,1
8.0,42.29222222222222,,,2220622.0,1600928165.66,1
8.0,46.96,0.329243,34.59,2235675.6666666665,1600928165.8,1
8.0,12.006666666666668,,,2248341.25,1600928165.94,1
8.0,-40.33111111111111,0.327962,34.59,2258468.3333333335,1600928166.08,1
8.0,-79.70111111111112,,,2261468.0,1600928166.22,1
8.0,-45.91777777777778,0.330524,34.59,2267245.6666666665,1600928166.36,1
8.0,33.30375,,,2275639.5,1600928166.5,1
8.0,43.82777777777778,0.330524,34.59,2286551.3333333335,1600928166.64,1
8.0,28.90666666666667,0.335648,34.59,2297559.5,1600928166.78,1
8.0,-17.59111111111111,,,2308873.6666666665,1600928166.92,1
8.0,-66.99444444444445,0.336929,34.59,2312324.0,1600928167.06,1
8.0,3.499999999999999,,,2310482.0,1600928167.2,1
8.0,38.51555555555555,0.336929,34.57,2316125.75,1600928167.34,1
8.0,38.25555555555556,,,2322812.3333333335,1600928167.48,1
8.0,7.59111111111111,0.335648,34.57,2331367.75,1600928167.62,1
8.0,-50.29,0.336929,34.57,2340049.6666666665,1600928167.76,1
8.0,-48.86555555555555,,,2347657.25,1600928167.9,1
8.0,37.97888888888889,0.336929,34.57,2343493.0,1600928168.04,1
8.0,39.142222222222216,,,2342165.0,1600928168.18,1
8.0,26.754444444444445,0.336929,34.57,2345446.6666666665,1600928168.32,1
8.0,-25.55888888888889,,,2350716.5,1600928168.46,1
8.0,-83.39444444444445,0.336929,34.57,2357837.3333333335,1600928168.6,1
8.0,16.494444444444444,,,2364604.0,1600928168.74,1
8.0,56.62888888888889,0.334367,34.57,2359171.6666666665,1600928168.88,1
8.0,49.09888888888889,0.335648,34.57,2353178.25,1600928169.02,1
8.0,13.55,,,2353916.6666666665,1600928169.16,1
8.0,-50.12555555555556,0.335648,34.59,2358002.25,1600928169.3,1
8.0,-81.38444444444445,,,2364347.6666666665,1600928169.44,1
8.0,34.99111111111111,0.336929,34.59,2367360.25,1600928169.58,1
8.0,55.94333333333333,,,2354890.0,1600928169.72,1
8.0,45.04333333333333,0.33821,34.59,2351863.5,1600928169.86,1
8.0,6.751250000000001,,,2352968.3333333335,1600928170.0,1
8.0,-48.84111111111111,0.339491,34.59,2356854.5,1600928170.14,1
8.0,-92.61444444444444,0.335648,34.57,2359430.3333333335,1600928170.28,1
8.0,24.037777777777777,,,2353896.25,1600928170.42,1
8.0,67.74888888888889,0.336929,34.57,2345083.0,1600928170.56,1
8.0,62.58888888888888,,,2345623.25,1600928170.7,1
8.0,22.628888888888888,0.33821,34.57,2348198.0,1600928170.84,1
8.0,-34.14444444444444,,,2355347.0,1600928170.98,1
8.0,-91.30888888888889,0.33821,34.57,2359424.0,1600928171.12,1
8.0,11.972222222222221,0.335648,34.57,2341992.5,1600928171.26,1
8.0,59.49111111111111,,,2338132.0,1600928171.4,1
8.0,55.44777777777777,0.334367,34.57,2338951.25,1600928171.54,1
8.0,27.995555555555555,,,2344204.6666666665,1600928171.68,1
8.0,-23.87777777777778,0.334367,34.57,2351965.25,1600928171.82,1
8.0,-87.63111111111112,,,2347228.6666666665,1600928171.96,1
8.0,-11.477777777777776,0.335648,34.57,2324778.0,1600928172.1,1
8.0,51.105555555555554,,,2319174.3333333335,1600928172.24,1
8.0,46.86333333333333,0.333086,34.59,2320069.0,1600928172.38,1
8.0,24.163333333333334,0.333086,34.59,2323146.0,1600928172.52,1
8.0,-26.823333333333334,,,2334955.75,1600928172.66,1
8.0,-86.33555555555556,0.333086,34.59,2334133.6666666665,1600928172.8,1
8.0,-39.53666666666666,,,2310804.0,1600928172.94,1
8.0,56.60111111111112,0.334367,34.59,2305615.6666666665,1600928173.08,1
8.0,59.73222222222223,,,2307183.75,1600928173.22,1
8.0,43.43111111111111,0.333086,34.57,2313998.3333333335,1600928173.36,1
8.0,1.5287499999999996,,,2321807.5,1600928173.5,1
8.0,-48.86,0.335648,34.57,2324265.0,1600928173.64,1
8.0,-82.51444444444445,0.336929,34.57,2299201.25,1600928173.78,1
8.0,25.941111111111113,,,2291153.6666666665,1600928173.92,1
8.0,51.43111111111111,0.336929,34.57,2291090.5,1600928174.06,1
8.0,48.342222222222226,,,2296496.0,1600928174.2,1
8.0,17.573333333333338,0.336929,34.57,2304971.75,1600928174.34,1
8.0,-32.406666666666666,,,2312575.3333333335,1600928174.48,1
8.0,-84.65555555555554,0.336929,34.57,2289993.5,1600928174.62,1
8.0,-21.70111111111111,0.334367,34.57,2276953.0,1600928174.76,1
8.0,45.45222222222222,,,2275356.75,1600928174.9,1
8.0,49.67666666666667,0.335648,34.57,2279092.3333333335,1600928175.04,1
8.0,30.494444444444444,,,2287507.0,1600928175.18,1
8.0,-9.486666666666668,0.335648,34.57,2296500.6666666665,1600928175.32,1
8.0,-54.605555555555554,,,2277657.25,1600928175.46,1
8.0,-68.00111111111111,0.335648,34.57,2256916.0,1600928175.6,1
8.0,28.031111111111112,,,2253610.25,1600928175.74,1
8.0,42.58888888888889,0.335648,34.57,2255788.3333333335,1600928175.88,1
8.0,37.08555555555556,0.336929,34.57,2264490.5,1600928176.02,1
8.0,0.8344444444444447,,,2274495.6666666665,1600928176.16,1
8.0,-44.3111111111111,0.336929,34.57,2267103.5,1600928176.3,1
8.0,-79.67111111111112,,,2239051.3333333335,1600928176.44,1
8.0,13.326666666666666,0.333086,34.57,2232904.5,1600928176.58,1
8.0,39.126666666666665,,,2233814.6666666665,1600928176.72,1
8.0,39.406666666666666,0.333086,34.57,2247784.75,1600928176.86,1
8.0,13.95625,,,2262669.3333333335,1600928177.0,1
8.0,-29.744444444444444,0.333086,34.57,2271782.5,1600928177.14,1
8.0,-81.79333333333334,0.334367,34.57,2248664.0,1600928177.28,1
8.0,-36.02555555555556,,,2237217.5,1600928177.42,1
8.0,43.53555555555555,0.331805,34.57,2237346.0,1600928177.56,1
8.0,44.23777777777778,,,2242511.0,1600928177.7,1
8.0,31.160000000000007,0.333086,34.57,2247864.0,1600928177.84,1
8.0,-14.203333333333333,,,2261060.5,1600928177.98,1
8.0,-67.35777777777778,0.331805,34.57,2255798.0,1600928178.12,1
8.0,-66.32777777777778,0.333086,34.57,2236240.75,1600928178.26,1
8.0,42.735555555555564,,,2234825.6666666665,1600928178.4,1
8.0,60.92777777777778,0.334367,34.57,2239163.0,1600928178.54,1
8.0,39.54111111111111,,,2248711.6666666665,1600928178.68,1
8.0,-0.6299999999999994,0.335648,34.57,2258462.25,1600928178.82,1
8.0,-55.50111111111111,,,2259959.6666666665,1600928178.96,1
8.0,-84.25222222222222,0.336929,34.57,2243402.5,1600928179.1,1
8.0,28.330000000000002,,,2243430.6666666665,1600928179.24,1
8.0,56.656666666666666,0.33821,34.57,2246321.0,1600928179.38,1
8.0,57.23555555555556,0.33821,34.57,2255131.6666666665,1600928179.52,1
8.0,21.54888888888889,,,2266426.0,1600928179.66,1
8.0,-34.49444444444445,0.336929,34.57,2277003.6666666665,1600928179.8,1
8.0,-81.48666666666666,,,2255700.75,1600928179.94,1
8.0,21.984444444444446,0.33821,34.57,2244291.0,1600928180.08,1
8.0,54.297777777777775,,,2245089.5,1600928180.22,1
8.0,53.02111111111111,0.339491,34.55,2251140.3333333335,1600928180.36,1
8.0,29.50125,,,2262326.0,1600928180.5,1
8.0,-34.03666666666666,0.336929,34.55,2273424.6666666665,1600928180.64,1
8.0,-97.54888888888888,0.336929,34.55,2257652.0,1600928180.78,1
8.0,-15.539999999999996,,,2236420.3333333335,1600928180.92,1
8.0,39.99888888888889,0.336929,34.55,2234471.0,1600928181.06,1
8.0,49.300000000000004,,,2237172.6666666665,1600928181.2,1
8.0,28.564444444444444,0.340773,34.57,2247171.5,1600928181.34,1
8.0,-17.435555555555556,,,2258880.0,1600928181.48,1
8.0,-78.28555555555556,0.335648,34.57,2253318.25,1600928181.62,1
8.0,-38.38444444444444,0.334367,34.57,2227241.6666666665,1600928181.76,1
8.0,50.55222222222222,,,2224509.6666666665,1600928181.9,1
8.0,58.21888888888889,0.334367,34.57,2225619.25,1600928182.04,1
8.0,40.337777777777774,,,2234992.5,1600928182.18,1
8.0,-4.195555555555555,0.334367,34.57,2245745.3333333335,1600928182.32,1
8.0,-48.44555555555556,,,2244640.5,1600928182.46,1
8.0,-79.64777777777778,0.334367,34.57,2214662.3333333335,1600928182.6,1
8.0,20.981111111111108,,,2208951.0,1600928182.74,1
8.0,53.51777777777777,0.334367,34.57,2208126.5,1600928182.88,1
8.0,48.32666666666667,0.334367,34.57,2214194.6666666665,1600928183.02,1
8.0,17.517777777777777,,,2224146.0,1600928183.16,1
8.0,-17.517777777777777,0.334367,34.57,2228245.6666666665,1600928183.3,1
8.0,-60.403333333333336,,,2194791.5,1600928183.44,1
8.0,-32.276666666666664,0.334367,34.57,2181950.3333333335,1600928183.58,1
8.0,43.422222222222224,,,2180375.0,1600928183.72,1
8.0,48.72777777777778,0.336929,34.57,2187384.3333333335,1600928183.86,1
8.0,39.165,,,2198796.0,1600928184.0,1
8.0,8.786666666666667,0.336929,34.57,2210812.0,1600928184.14,1
8.0,-26.714444444444442,0.339491,34.55,2186717.25,1600928184.28,1
8.0,-75.11444444444446,,,2161399.0,1600928184.42,1
8.0,-39.57,0.339491,34.55,2157617.5,1600928184.56,1
8.0,31.577777777777776,,,2161344.0,1600928184.7,1
8.0,35.06222222222223,0.33821,34.55,2172876.5,1600928184.84,1
8.0,27.819999999999997,,,2185999.0,1600928184.98,1
8.0,-0.22555555555555587,0.33821,34.55,2187598.0,1600928185.12,1
8.0,-33.89666666666667,0.33821,34.55,2157140.0,1600928185.26,1
8.0,-77.54222222222222,,,2151284.0,1600928185.4,1
8.0,-5.152222222222218,0.339491,34.55,2152922.0,1600928185.54,1
8.0,39.49444444444445,,,2163930.0,1600928185.68,1
8.0,36.7,0.339491,34.55,2177376.0,1600928185.82,1
8.0,27.254444444444445,,,2192209.0,1600928185.96,1
8.0,-1.5,0.339491,34.55,2177808.3333333335,1600928186.1,1
8.0,-39.66555555555556,,,2153587.5,1600928186.24,1
8.0,-78.53888888888889,0.339491,34.57,2150082.6666666665,1600928186.38,1
8.0,0.2588888888888879,0.33821,34.57,2153980.75,1600928186.52,1
8.0,40.837777777777774,,,2165615.3333333335,1600928186.66,1
8.0,41.43555555555556,0.339491,34.57,2180175.5,1600928186.8,1
8.0,27.68888888888889,,,2195812.6666666665,1600928186.94,1
8.0,-2.597777777777777,0.336929,34.57,2179970.5,1600928187.08,1
8.0,-40.66111111111112,,,2165559.6666666665,1600928187.22,1
8.0,-75.65222222222222,0.335648,34.55,2168003.25,1600928187.36,1
8.0,1.7149999999999999,,,2174673.0,1600928187.5,1
8.0,41.278888888888886,0.335648,34.55,2189211.25,1600928187.64,1
8.0,40.95777777777777,0.335648,34.55,2207376.0,1600928187.78,1
8.0,29.70555555555556,,,2222523.75,1600928187.92,1
8.0,-5.664444444444444,0.336929,34.55,2211346.0,1600928188.06,1
8.0,-47.09111111111111,,,2212414.25,1600928188.2,1
8.0,-69.9511111111111,0.339491,34.55,2220542.6666666665,1600928188.34,1
8.0,24.26,,,2232355.25,1600928188.48,1
8.0,41.79555555555555,0.336929,34.55,2246480.3333333335,1600928188.62,1
8.0,39.80555555555556,0.340773,34.55,2260653.25,1600928188.76,1
8.0,17.15777777777778,,,2271928.3333333335,1600928188.9,1
8.0,-25.10888888888889,0.336929,34.55,2259007.0,1600928189.04,1
8.0,-73.19888888888889,,,2258316.6666666665,1600928189.18,1
8.0,-48.656666666666666,0.340773,34.55,2263637.5,1600928189.32,1
8.0,43.897777777777776,,,2272007.0,1600928189.46,1
8.0,46.75666666666667,0.33821,34.55,2284418.0,1600928189.6,1
8.0,45.857777777777784,,,2295904.0,1600928189.74,1
8.0,3.108888888888889,0.33821,34.55,2299683.6666666665,1600928189.88,1
8.0,-63.87777777777779,0.33821,34.55,2284602.75,1600928190.02,1
8.0,-126.4511111111111,,,2288400.0,1600928190.16,1
8.0,3.9466666666666677,0.342054,34.55,2294748.0,1600928190.3,1
8.0,49.093333333333334,,,2304257.75,1600928190.44,1
8.0,53.22222222222222,0.342054,34.55,2315544.0,1600928190.58,1
8.0,21.856666666666666,,,2324824.3333333335,1600928190.72,1
8.0,-42.54,0.339491,34.55,2324382.25,1600928190.86,1
8.0,-120.14625000000001,,,2314433.0,1600928191.0,1
8.0,-41.75333333333333,0.342054,34.55,2318764.5,1600928191.14,1
8.0,70.44666666666666,0.344616,34.55,2323794.0,1600928191.28,1
8.0,79.79333333333334,,,2333104.0,1600928191.42,1
8.0,56.95444444444445,0.342054,34.55,2342639.3333333335,1600928191.56,1
8.0,-15.033333333333335,,,2350906.0,1600928191.7,1
8.0,-109.46111111111112,0.342054,34.55,2338536.3333333335,1600928191.84,1
8.0,-89.57333333333332,,,2329902.0,1600928191.98,1
8.0,69.7011111111111,0.340773,34.55,2333037.5,1600928192.12,1
8.0,78.99000000000001,0.340773,34.55,2336551.3333333335,1600928192.26,1
8.0,63.68222222222222,,,2344943.75,1600928192.4,1
8.0,-11.763333333333334,0.340773,34.55,2353097.0,1600928192.54,1
8.0,-110.93555555555555,,,2352609.5,1600928192.68,1
8.0,-93.06333333333333,0.340773,34.55,2329651.3333333335,1600928192.82,1
8.0,97.01666666666667,,,2324911.75,1600928192.96,1
8.0,118.14333333333333,0.339491,34.55,2325713.75,1600928193.1,1
8.0,94.03444444444445,,,2332587.6666666665,1600928193.24,1
8.0,18.781111111111112,0.33821,34.55,2340112.3333333335,1600928193.38,1
8.0,-65.83777777777777,0.344616,34.55,2345900.25,1600928193.52,1
8.0,-114.6711111111111,,,2320095.6666666665,1600928193.66,1
8.0,71.57666666666665,0.363832,34.55,2304462.0,1600928193.8,1
8.0,132.83777777777777,,,2301195.3333333335,1600928193.94,1
8.0,129.1011111111111,0.362551,34.55,2303342.25,1600928194.08,1
8.0,48.73,,,2309052.0,1600928194.22,1
8.0,-67.62222222222222,0.36127,34.57,2318243.75,1600928194.36,1
8.0,-141.44,,,2296182.6666666665,1600928194.5,1
8.0,-86.7011111111111,0.358708,34.57,2267198.25,1600928194.64,1
8.0,60.60555555555556,0.36127,34.57,2258294.6666666665,1600928194.78,1
8.0,76.91333333333333,,,2255765.75,1600928194.92,1
8.0,60.620000000000005,0.358708,34.57,2260841.0,1600928195.06,1
8.0,3.4322222222222214,,,2267556.75,1600928195.2,1
8.0,-53.89555555555555,0.354865,34.55,2245306.3333333335,1600928195.34,1
8.0,-110.19444444444444,,,2209100.75,1600928195.48,1
8.0,13.344444444444447,0.356146,34.55,2197680.6666666665,1600928195.62,1
8.0,67.73555555555555,0.353584,34.55,2194257.0,1600928195.76,1
8.0,56.05444444444444,,,2199537.0,1600928195.9,1
8.0,18.495555555555555,0.357427,34.55,2206805.75,1600928196.04,1
8.0,-30.91,,,2201853.6666666665,1600928196.18,1
8.0,-79.97555555555556,0.357427,34.55,2158489.25,1600928196.32,1
8.0,-97.83444444444444,,,2141528.0,1600928196.46,1
8.0,43.236666666666665,0.357427,34.55,2137998.75,1600928196.6,1
8.0,90.22555555555556,,,2143839.0,1600928196.74,1
8.0,91.77333333333333,0.356146,34.55,2153576.0,1600928196.88,1
8.0,35.396666666666675,0.353584,34.55,2165277.3333333335,1600928197.02,1
8.0,-65.63222222222223,,,2141408.25,1600928197.16,1
8.0,-155.45666666666668,0.353584,34.57,2111042.0,1600928197.3,1
8.0,-139.50222222222226,,,2104885.5,1600928197.44,1
8.0,21.85888888888889,0.354865,34.57,2106921.0,1600928197.58,1
8.0,71.37333333333332,,,2117971.75,1600928197.72,1
8.0,69.28444444444445,0.352302,34.57,2131759.6666666665,1600928197.86,1
8.0,35.4025,,,2139696.75,1600928198.0,1
8.0,-10.471111111111112,0.352302,34.57,2114845.6666666665,1600928198.14,1
8.0,-62.45666666666667,0.352302,34.53,2107815.5,1600928198.28,1
8.0,-96.66,,,2109497.6666666665,1600928198.42,1
8.0,29.357777777777773,0.353584,34.53,2121474.75,1600928198.56,1
8.0,67.73666666666665,,,2136689.3333333335,1600928198.7,1
8.0,63.47777777777779,0.351021,34.53,2153288.0,1600928198.84,1
8.0,31.700000000000003,,,2159574.6666666665,1600928198.98,1
8.0,-13.208888888888888,0.34974,34.53,2143652.5,1600928199.12,1
8.0,-61.67888888888889,0.34974,34.57,2143433.3333333335,1600928199.26,1
8.0,-89.53444444444443,,,2149185.25,1600928199.4,1
8.0,24.747777777777777,0.34974,34.57,2159953.6666666665,1600928199.54,1
8.0,54.261111111111106,,,2170566.75,1600928199.68,1
8.0,51.43333333333333,0.352302,34.57,2179186.3333333335,1600928199.82,1
8.0,22.91,,,2191842.75,1600928199.96,1
8.0,-14.65777777777778,0.351021,34.57,2192464.0,1600928200.1,1
8.0,-60.59444444444445,,,2200134.25,1600928200.24,1
8.0,-84.30777777777779,0.351021,34.55,2213008.6666666665,1600928200.38,1
8.0,25.434444444444445,0.351021,34.55,2230366.0,1600928200.52,1
8.0,53.99333333333334,,,2246716.6666666665,1600928200.66,1
8.0,46.128888888888895,0.351021,34.55,2262956.25,1600928200.8,1
8.0,15.255555555555556,,,2272463.6666666665,1600928200.94,1
8.0,-26.35,0.352302,34.55,2269191.25,1600928201.08,1
8.0,-77.39000000000001,,,2275410.0,1600928201.22,1
8.0,-42.45666666666666,0.356146,34.55,2283411.5,1600928201.36,1
8.0,35.271249999999995,,,2292591.6666666665,1600928201.5,1
8.0,43.3,0.357427,34.55,2299041.25,1600928201.64,1
8.0,31.25444444444444,0.358708,34.55,2308786.3333333335,1600928201.78,1
8.0,-11.066666666666668,,,2313718.5,1600928201.92,1
8.0,-61.40777777777779,0.358708,34.55,2310614.0,1600928202.06,1
8.0,-47.394444444444446,,,2316195.0,1600928202.2,1
8.0,41.471111111111114,0.358708,34.55,2322708.3333333335,1600928202.34,1
8.0,46.96111111111111,,,2331094.0,1600928202.48,1
8.0,31.79111111111111,0.359989,34.55,2340608.0,1600928202.62,1
8.0,-12.311111111111112,0.358708,34.55,2350737.25,1600928202.76,1
8.0,-63.79222222222222,,,2355738.6666666665,1600928202.9,1
8.0,-45.94333333333333,0.359989,34.55,2346926.25,1600928203.04,1
8.0,38.337777777777774,,,2346594.0,1600928203.18,1
8.0,40.27777777777778,0.358708,34.55,2349677.5,1600928203.32,1
8.0,24.821111111111108,,,2355580.0,1600928203.46,1
8.0,-24.507777777777775,0.358708,34.55,2361799.5,1600928203.6,1
8.0,-77.76666666666665,,,2369304.3333333335,1600928203.74,1
8.0,-9.415555555555557,0.356146,34.55,2363161.25,1600928203.88,1
8.0,47.07222222222222,0.356146,34.55,2356668.3333333335,1600928204.02,1
8.0,48.773333333333326,,,2357304.25,1600928204.16,1
8.0,25.547777777777775,0.356146,34.53,2360423.6666666665,1600928204.3,1
8.0,-27.774444444444445,,,2367155.25,1600928204.44,1
8.0,-83.12666666666668,0.356146,34.53,2374567.3333333335,1600928204.58,1
8.0,-7.801111111111112,,,2365701.0,1600928204.72,1
8.0,55.05222222222222,0.356146,34.53,2353278.3333333335,1600928204.86,1
8.0,56.900000000000006,,,2353444.0,1600928205.0,1
8.0,40.57333333333334,0.354865,34.53,2356492.3333333335,1600928205.14,1
8.0,-2.666666666666666,0.354865,34.55,2363923.0,1600928205.28,1
8.0,-54.04888888888889,,,2372110.3333333335,1600928205.42,1
8.0,-75.70777777777778,0.354865,34.55,2356519.75,1600928205.56,1
8.0,36.53,,,2337174.3333333335,1600928205.7,1
8.0,54.55222222222222,0.354865,34.55,2335597.25,1600928205.84,1
8.0,46.871111111111105,,,2339896.6666666665,1600928205.98,1
8.0,17.32111111111111,0.357427,34.55,2348260.75,1600928206.12,1
8.0,-20.427777777777777,0.358708,34.55,2354531.0,1600928206.26,1
8.0,-65.93222222222222,,,2330730.75,1600928206.4,1
8.0,-50.64888888888889,0.358708,34.55,2317109.0,1600928206.54,1
8.0,43.096666666666664,,,2314903.5,1600928206.68,1
8.0,49.468888888888884,0.358708,34.55,2318359.3333333335,1600928206.82,1
8.0,41.885555555555555,,,2326292.5,1600928206.96,1
8.0,11.556666666666665,0.357427,34.55,2332919.6666666665,1600928207.1,1
8.0,-26.45777777777778,,,2306159.0,1600928207.24,1
8.0,-70.69444444444444,0.357427,34.55,2291123.3333333335,1600928207.38,1
8.0,-20.751111111111115,0.356146,34.55,2288616.75,1600928207.52,1
8.0,46.1188888888889,,,2292258.6666666665,1600928207.66,1
8.0,54.88444444444445,0.3728,34.55,2301261.75,1600928207.8,1
8.0,58.95777777777778,,,2311110.6666666665,1600928207.94,1
8.0,20.442222222222224,0.357427,34.55,2302374.25,1600928208.08,1
8.0,-38.19222222222223,,,2275452.3333333335,1600928208.22,1
8.0,-100.55000000000001,0.357427,34.55,2269196.25,1600928208.36,1
8.0,-35.9675,,,2266673.0,1600928208.5,1
8.0,1.4311111111111114,0.357427,34.55,2274926.5,1600928208.64,1
8.0,20.307777777777776,0.357427,34.55,2286012.6666666665,1600928208.78,1
8.0,19.542222222222218,,,2296613.5,1600928208.92,1
8.0,-7.598888888888889,0.357427,34.55,2281607.6666666665,1600928209.06,1
8.0,-47.62777777777778,,,2263314.5,1600928209.2,1
8.0,-77.8411111111111,0.354865,34.57,2261701.6666666665,1600928209.34,1
8.0,19.425555555555558,,,2264957.25,1600928209.48,1
8.0,46.26777777777778,0.353584,34.57,2274357.3333333335,1600928209.62,1
8.0,48.123333333333335,0.353584,34.57,2285728.25,1600928209.76,1
8.0,25.511111111111113,,,2296735.6666666665,1600928209.9,1
8.0,-14.134444444444446,0.353584,34.57,2280101.5,1600928210.04,1
8.0,-61.98222222222221,,,2269498.3333333335,1600928210.18,1
8.0,-66.90444444444444,0.356146,34.55,2271154.0,1600928210.32,1
8.0,28.79111111111111,,,2276802.6666666665,1600928210.46,1
8.0,38.25222222222222,0.354865,34.55,2287121.0,1600928210.6,1
8.0,37.025555555555556,,,2298088.3333333335,1600928210.74,1
8.0,7.535555555555555,0.354865,34.55,2303492.5,1600928210.88,1
8.0,-40.04666666666667,0.354865,34.55,2284740.0,1600928211.02,1
8.0,-96.46555555555557,,,2283097.25,1600928211.16,1
8.0,-8.138888888888891,0.357427,34.55,2286016.3333333335,1600928211.3,1
8.0,50.05777777777777,,,2294121.75,1600928211.44,1
8.0,56.30555555555556,0.354865,34.55,2305240.3333333335,1600928211.58,1
8.0,36.37222222222222,,,2316238.75,1600928211.72,1
8.0,-19.36333333333333,0.359989,34.55,2317523.0,1600928211.86,1
8.0,-79.60625,,,2298444.5,1600928212.0,1
8.0,-90.68555555555555,0.359989,34.55,2298011.0,1600928212.14,1
8.0,32.922222222222224,0.359989,34.53,2302182.75,1600928212.28,1
8.0,50.68666666666667,,,2311139.6666666665,1600928212.42,1
8.0,57.766666666666666,0.359989,34.53,2321747.5,1600928212.56,1
8.0,16.125555555555557,,,2332433.6666666665,1600928212.7,1
8.0,-52.51888888888888,0.359989,34.53,2325822.25,1600928212.84,1
8.0,-126.20333333333332,,,2309523.0,1600928212.98,1
8.0,2.5122222222222206,0.358708,34.53,2312370.5,1600928213.12,1
8.0,72.17,0.359989,34.55,2317162.0,1600928213.26,1
8.0,82.89111111111112,,,2327320.25,1600928213.4,1
8.0,44.239999999999995,0.358708,34.55,2338298.3333333335,1600928213.54,1
8.0,-23.863333333333333,,,2343185.5,1600928213.68,1
8.0,-106.22333333333333,0.359989,34.55,2321244.0,1600928213.82,1
8.0,-107.22111111111113,,,2313630.0,1600928213.96,1
8.0,72.53888888888888,0.365113,34.55,2313672.0,1600928214.1,1
8.0,112.47333333333333,,,2320677.0,1600928214.24,1
8.0,101.05000000000001,0.359989,34.55,2331025.3333333335,1600928214.38,1
8.0,46.98555555555555,0.358708,34.55,2341229.75,1600928214.52,1
8.0,-24.027777777777782,,,2328540.3333333335,1600928214.66,1
8.0,-110.52222222222223,0.359989,34.55,2302301.75,1600928214.8,1
8.0,-80.10111111111111,,,2295558.0,1600928214.94,1
8.0,78.11,0.36127,34.55,2293592.5,1600928215.08,1
8.0,107.94222222222223,,,2298795.0,1600928215.22,1
8.0,96.4011111111111,0.36127,34.55,2305781.0,1600928215.36,1
8.0,43.512499999999996,,,2305454.0,1600928215.5,1
8.0,-15.975555555555559,0.358708,34.55,2267341.25,1600928215.64,1
8.0,-89.19111111111111,0.358708,34.55,2252981.6666666665,1600928215.78,1
8.0,-83.44555555555556,,,2247335.5,1600928215.92,1
8.0,55.99888888888889,0.358708,34.55,2250167.6666666665,1600928216.06,1
8.0,72.13444444444444,,,2257086.75,1600928216.2,1
8.0,61.84444444444445,0.358708,34.55,2265594.0,1600928216.34,1
8.0,10.767777777777775,,,2244085.25,1600928216.48,1
8.0,-42.76222222222222,0.358708,34.55,2206163.0,1600928216.62,1
8.0,-101.52222222222223,0.357427,34.55,2194277.75,1600928216.76,1
8.0,-40.10444444444445,,,2190474.0,1600928216.9,1
8.0,53.43444444444444,0.357427,34.55,2196080.5,1600928217.04,1
8.0,58.84777777777778,,,2204542.0,1600928217.18,1
8.0,40.437777777777775,0.359989,34.53,2214848.75,1600928217.32,1
8.0,-5.4255555555555555,,,2191972.0,1600928217.46,1
8.0,-52.642222222222216,0.359989,34.53,2160238.75,1600928217.6,1
8.0,-104.00555555555555,,,2151005.0,1600928217.74,1
8.0,-14.318888888888889,0.36127,34.53,2151329.5,1600928217.88,1
8.0,51.24666666666667,0.362551,34.53,2159477.0,1600928218.02,1
8.0,51.056666666666665,,,2170709.75,1600928218.16,1
8.0,33.614444444444445,0.363832,34.55,2183831.6666666665,1600928218.3,1
8.0,-5.6866666666666665,,,2169073.25,1600928218.44,1
8.0,-47.28333333333333,0.366395,34.55,2150017.6666666665,1600928218.58,1
8.0,-87.31222222222222,,,2149234.75,1600928218.72,1
8.0,6.29111111111111,0.365113,34.55,2155004.6666666665,1600928218.86,1
8.0,42.685,,,2167748.5,1600928219.0,1
8.0,31.564444444444444,0.365113,34.55,2181718.3333333335,1600928219.14,1
8.0,15.443333333333332,0.362551,34.55,2196538.0,1600928219.28,1
8.0,-15.357777777777777,,,2185342.3333333335,1600928219.42,1
8.0,-47.93333333333333,0.365113,34.55,2181365.0,1600928219.56,1
8.0,-91.60888888888888,,,2185640.0,1600928219.7,1
8.0,7.148888888888889,0.362551,34.55,2193698.25,1600928219.84,1
8.0,50.84888888888889,,,2206035.0,1600928219.98,1
8.0,51.26222222222222,0.362551,34.55,2219521.5,1600928220.12,1
8.0,28.385555555555555,0.362551,34.53,2231788.3333333335,1600928220.26,1
8.0,-12.65111111111111,,,2222047.25,1600928220.4,1
8.0,-58.81444444444445,0.359989,34.53,2218986.3333333335,1600928220.54,1
8.0,-76.0588888888889,,,2223461.5,1600928220.68,1
8.0,38.142222222222216,0.36127,34.53,2232148.0,1600928220.82,1
8.0,56.160000000000004,,,2243763.25,1600928220.96,1
8.0,43.14,0.363832,34.53,2256276.6666666665,1600928221.1,1
8.0,8.198888888888888,,,2265070.25,1600928221.24,1
8.0,-28.403333333333332,0.36127,34.53,2256060.3333333335,1600928221.38,1
8.0,-75.49222222222221,0.36127,34.53,2255444.0,1600928221.52,1
8.0,-46.058888888888895,,,2259546.6666666665,1600928221.66,1
8.0,40.233333333333334,0.36127,34.53,2267244.5,1600928221.8,1
8.0,47.769999999999996,,,2276826.3333333335,1600928221.94,1
8.0,41.18333333333334,0.362551,34.53,2287438.75,1600928222.08,1
8.0,0.9155555555555542,,,2293410.0,1600928222.22,1
8.0,-45.66555555555555,0.359989,34.55,2282286.5,1600928222.36,1
8.0,-81.59375,,,2281997.0,1600928222.5,1
8.0,13.137777777777778,0.362551,34.55,2285482.5,1600928222.64,1
8.0,46.135555555555555,0.362551,34.55,2292761.6666666665,1600928222.78,1
8.0,46.06999999999999,,,2302735.75,1600928222.92,1
8.0,22.054444444444442,0.365113,34.55,2312539.3333333335,1600928223.06,1
8.0,-22.433333333333334,,,2311223.25,1600928223.2,1
8.0,-86.78777777777776,0.365113,34.53,2299046.0,1600928223.34,1
8.0,-37.717777777777776,,,2299162.75,1600928223.48,1
8.0,40.38777777777778,0.363832,34.53,2302042.6666666665,1600928223.62,1
8.0,46.98777777777778,0.362551,34.53,2309455.75,1600928223.76,1
8.0,35.33222222222222,,,2317657.6666666665,1600928223.9,1
8.0,-0.8255555555555559,0.365113,34.53,2326212.75,1600928224.04,1
8.0,-47.90777777777778,,,2318702.0,1600928224.18,1
8.0,-57.56666666666667,0.365113,34.53,2310626.25,1600928224.32,1
8.0,40.63666666666667,,,2311198.3333333335,1600928224.46,1
8.0,47.537777777777784,0.365113,34.53,2314647.25,1600928224.6,1
8.0,36.24555555555556,,,2321541.3333333335,1600928224.74,1
8.0,-4.058888888888889,0.362551,34.53,2329586.75,1600928224.88,1
8.0,-49.84222222222222,0.366395,34.53,2330747.6666666665,1600928225.02,1
8.0,-75.87333333333333,,,2316192.75,1600928225.16,1
8.0,15.777777777777779,0.36127,34.53,2313329.6666666665,1600928225.3,1
8.0,38.70444444444444,,,2314624.5,1600928225.44,1
8.0,31.696666666666665,0.36127,34.53,2319963.6666666665,1600928225.58,1
8.0,3.442222222222222,,,2325160.5,1600928225.72,1
8.0,-38.03888888888889,0.365113,34.53,2333266.3333333335,1600928225.86,1
8.0,-73.20875000000001,,,2318023.25,1600928226.0,1
8.0,9.336666666666666,0.363832,34.53,2308430.6666666665,1600928226.14,1
8.0,35.404444444444444,0.315151,34.53,2307629.75,1600928226.28,1
8.0,28.47555555555555,,,2310566.3333333335,1600928226.42,1
8.0,-10.030000000000001,0.312588,34.53,2317186.75,1600928226.56,1
8.0,-85.49000000000001,,,2324891.6666666665,1600928226.7,1
8.0,-182.5055555555556,0.310026,34.53,2318227.5,1600928226.84,1
8.0,-153.2422222222222,,,2301310.0,1600928226.98,1
8.0,-50.98222222222222,0.311307,34.53,2298162.25,1600928227.12,1
8.0,67.06111111111112,0.310026,34.53,2298773.3333333335,1600928227.26,1
8.0,62.74111111111112,,,2304562.5,1600928227.4,1
8.0,-20.784444444444446,0.315151,34.53,2312072.6666666665,1600928227.54,1
8.0,3.225555555555555,,,2310304.5,1600928227.68,1
