ID,empatica_bvp,empatica_eda,empatica_temp,samsung_bvp,time,CL
8.0,-58.5925,,,2075340.0,1600928302.2014945,0
8.0,-22.335,0.343252,34.37,2074524.0,1600928302.2623641,0
8.0,31.095,,,2074089.0,1600928302.3232336,0
8.0,48.3875,,,2074979.5,1600928302.3841033,0
8.0,49.370000000000005,,,2076865.0,1600928302.4449728,0
8.0,56.925,0.365025,34.37,2079284.0,1600928302.5058424,0
8.0,73.7675,,,2081821.0,1600928302.566712,0
8.0,107.9925,,,2084684.5,1600928302.6275816,0
8.0,135.2575,,,2088147.0,1600928302.688451,0
8.0,106.23666666666668,,,2090980.5,1600928302.7493207,0
8.0,38.27,0.348375,34.37,2087978.0,1600928302.8101902,0
8.0,-12.080000000000002,,,2076635.0,1600928302.87106,0
8.0,3.9899999999999998,,,2065542.0,1600928302.9319293,0
8.0,44.6575,,,2057723.0,1600928302.9927988,0
8.0,58.3125,0.348375,34.37,2051449.0,1600928303.0536685,0
8.0,16.9725,,,2047056.0,1600928303.114538,0
8.0,7.952500000000001,,,2041551.0,1600928303.1754076,0
8.0,66.0875,,,2041027.0,1600928303.236277,0
8.0,98.97,0.350937,34.39,2042405.5,1600928303.2971468,0
8.0,79.92333333333333,,,2045703.0,1600928303.3580163,0
8.0,-22.22,,,2049524.5,1600928303.418886,0
8.0,-185.7425,,,2053145.0,1600928303.4797554,0
8.0,-253.32,0.350937,34.39,2057516.5,1600928303.540625,0
8.0,-190.34,,,2065067.0,1600928303.6014946,0
8.0,-130.04000000000002,,,2073058.0,1600928303.6623642,0
8.0,-95.58,,,2079674.0,1600928303.7232337,0
8.0,-74.5875,0.352218,34.39,2082454.0,1600928303.7841032,0
8.0,-59.055,,,2078786.0,1600928303.8449728,0
8.0,-50.04666666666666,,,2073503.5,1600928303.9058423,0
8.0,-48.9475,,,2067200.0,1600928303.966712,0
8.0,-51.605000000000004,0.35606,34.39,2064017.5,1600928304.0275815,0
8.0,-64.8375,,,2062659.0,1600928304.0884511,0
8.0,-83.105,,,2061952.0,1600928304.1493206,0
8.0,-51.27,,,2059894.0,1600928304.2101903,0
8.0,-3.5675,0.354779,34.37,2058710.5,1600928304.2710598,0
8.0,20.175,,,2058968.0,1600928304.3319294,0
8.0,33.8375,,,2059845.0,1600928304.392799,0
8.0,43.957499999999996,,,2061930.0,1600928304.4536686,0
8.0,50.23666666666666,0.353498,34.37,2065075.0,1600928304.514538,0
8.0,56.8825,,,2068011.0,1600928304.5754075,0
8.0,58.805,,,2071281.0,1600928304.6362772,0
8.0,51.7375,,,2074670.0,1600928304.6971467,0
8.0,43.89,0.35606,34.37,2078292.0,1600928304.7580163,0
8.0,32.105,,,2081512.5,1600928304.8188858,0
8.0,16.782500000000002,,,2083785.0,1600928304.8797555,0
8.0,-2.4375,,,2087037.0,1600928304.940625,0
8.0,-19.3275,0.357341,34.37,2090718.0,1600928305.0014946,0
8.0,-35.416666666666664,,,2093873.5,1600928305.062364,0
8.0,-56.63250000000001,,,2096129.0,1600928305.1232338,0
8.0,-47.6875,,,2099669.0,1600928305.1841033,0
8.0,-4.41,,,2103321.0,1600928305.244973,0
8.0,19.707500000000003,0.359902,34.37,2107218.0,1600928305.3058424,0
8.0,24.9025,,,2111501.0,1600928305.3667119,0
8.0,24.21,,,2116283.0,1600928305.4275815,0
8.0,26.2925,,,2120460.0,1600928305.488451,0
8.0,34.347500000000004,0.361183,34.37,2126109.5,1600928305.5493207,0
8.0,38.865,,,2133731.0,1600928305.6101902,0
8.0,37.25,,,2137100.5,1600928305.6710598,0
8.0,32.1375,,,2138269.0,1600928305.7319293,0
8.0,20.697499999999998,0.365025,34.37,2131211.5,1600928305.792799,0
8.0,12.942499999999999,,,2120673.0,1600928305.8536685,0
8.0,2.1600000000000006,,,2111336.5,1600928305.9145381,0
8.0,-9.055,,,2103196.0,1600928305.9754076,0
8.0,-31.1025,0.368868,34.37,2096960.0,1600928306.036277,0
8.0,-48.6375,,,2089908.0,1600928306.0971467,0
8.0,-19.245,,,2083716.0,1600928306.1580162,0
8.0,22.0125,,,2078613.0,1600928306.218886,0
8.0,36.82666666666666,0.366306,34.34,2075483.5,1600928306.2797554,0
8.0,36.25750000000001,,,2072810.0,1600928306.340625,0
8.0,25.1325,,,2070264.0,1600928306.4014945,0
8.0,12.91,,,2068113.0,1600928306.4623642,0
8.0,4.3625,0.367587,34.34,2067563.0,1600928306.5232337,0
8.0,-3.4325,,,2069560.5,1600928306.5841033,0
8.0,-15.125,,,2071920.0,1600928306.6449728,0
8.0,-21.945,,,2070588.0,1600928306.7058425,0
8.0,-24.095,0.367587,34.34,2059066.0,1600928306.766712,0
8.0,-23.41,,,2046129.0,1600928306.8275814,0
8.0,-25.72,,,2036877.0,1600928306.888451,0
8.0,-38.735,,,2031520.0,1600928306.9493206,0
8.0,-61.067499999999995,0.367587,34.34,2027231.0,1600928307.0101902,0
8.0,-49.905,,,2021091.5,1600928307.0710597,0
8.0,-5.327500000000001,,,2015879.0,1600928307.1319294,0
8.0,22.555,,,2012662.0,1600928307.1927989,0
8.0,34.042500000000004,0.37271,34.34,2011272.0,1600928307.2536685,0
8.0,37.917500000000004,,,2010962.5,1600928307.314538,0
8.0,34.6375,,,2010804.0,1600928307.3754077,0
8.0,34.57666666666667,,,2011059.5,1600928307.4362772,0
8.0,33.1475,,,2011995.0,1600928307.4971468,0
8.0,24.939999999999998,0.371429,34.34,2013929.5,1600928307.5580163,0
8.0,15.115,,,2015411.0,1600928307.6188858,0
8.0,3.6575,,,2017351.5,1600928307.6797554,0
8.0,-5.9775,,,2011391.0,1600928307.740625,0
8.0,-17.2875,0.37271,34.34,1993582.0,1600928307.8014946,0
8.0,-26.8925,,,1973815.0,1600928307.862364,0
8.0,-42.44500000000001,,,1961179.0,1600928307.9232337,0
8.0,-54.17000000000001,,,1954183.0,1600928307.9841032,0
8.0,-36.864999999999995,0.373991,34.34,1949238.0,1600928308.044973,0
8.0,-4.125,,,1942422.5,1600928308.1058424,0
8.0,11.377500000000001,,,1938804.0,1600928308.166712,0
8.0,19.1575,,,1938300.5,1600928308.2275815,0
8.0,22.957500000000003,0.373991,34.34,1940349.0,1600928308.2884512,0
8.0,24.034999999999997,,,1944639.0,1600928308.3493207,0
8.0,25.615000000000002,,,1946574.0,1600928308.41019,0
8.0,24.1575,,,1947602.0,1600928308.4710598,0
8.0,18.595,0.371429,34.34,1948680.0,1600928308.5319293,0
8.0,14.413333333333332,,,1949420.0,1600928308.592799,0
8.0,5.864999999999999,,,1946214.0,1600928308.6536684,0
8.0,-4.72,,,1931652.0,1600928308.714538,0
8.0,-15.770000000000001,0.371429,34.34,1917679.0,1600928308.7754076,0
8.0,-25.427500000000002,,,1910389.5,1600928308.8362772,0
8.0,-38.7775,,,1905599.0,1600928308.8971467,0
8.0,-54.92,,,1903107.5,1600928308.9580164,0
8.0,-38.0625,0.370149,34.34,1901101.0,1600928309.0188859,0
8.0,-0.1299999999999999,,,1900698.0,1600928309.0797555,0
8.0,18.02,,,1901846.0,1600928309.140625,0
8.0,22.18,,,1904234.5,1600928309.2014945,0
8.0,23.1175,0.370149,34.34,1906934.0,1600928309.2623641,0
8.0,26.0975,,,1909782.0,1600928309.3232336,0
8.0,28.63,,,1912632.0,1600928309.3841033,0
8.0,29.2975,,,1915577.0,1600928309.4449728,0
8.0,27.33,0.371429,34.34,1919008.0,1600928309.5058424,0
8.0,23.485000000000003,,,1922883.0,1600928309.566712,0
8.0,16.3225,,,1920241.0,1600928309.6275816,0
8.0,7.052499999999999,,,1912877.0,1600928309.688451,0
8.0,-1.3266666666666669,,,1908486.5,1600928309.7493207,0
8.0,-11.0225,0.37271,34.34,1907596.0,1600928309.8101902,0
8.0,-22.919999999999998,,,1909007.5,1600928309.87106,0
8.0,-39.285,,,1910602.0,1600928309.9319293,0
8.0,-52.37,,,1912379.0,1600928309.9927988,0
8.0,-32.9825,0.37271,34.34,1914946.0,1600928310.0536685,0
8.0,-7.6675,,,1918541.0,1600928310.114538,0
8.0,1.13,,,1922650.0,1600928310.1754076,0
8.0,6.52,,,1926921.5,1600928310.236277,0
8.0,13.4125,0.37271,34.34,1931637.0,1600928310.2971468,0
8.0,19.076666666666668,,,1936450.0,1600928310.3580163,0
8.0,27.497500000000002,,,1941519.0,1600928310.418886,0
8.0,32.6175,,,1947149.0,1600928310.4797554,0
8.0,27.154999999999998,0.37271,34.34,1951652.0,1600928310.540625,0
8.0,22.134999999999998,,,1949324.0,1600928310.6014946,0
8.0,12.41,,,1946606.0,1600928310.6623642,0
8.0,1.8599999999999999,,,1946553.5,1600928310.7232337,0
8.0,-8.285,0.370149,34.34,1947334.0,1600928310.7841032,0
8.0,-19.8975,,,1949897.5,1600928310.8449728,0
8.0,-31.583333333333332,,,1952285.0,1600928310.9058423,0
8.0,-43.8825,,,1955470.5,1600928310.966712,0
8.0,-30.8025,0.37271,34.34,1960841.0,1600928311.0275815,0
8.0,5.8500000000000005,,,1965472.0,1600928311.0884511,0
8.0,22.665,,,1970533.5,1600928311.1493206,0
8.0,25.5175,,,1975895.0,1600928311.2101903,0
8.0,25.35,0.370149,34.34,1981198.0,1600928311.2710598,0
8.0,20.585,,,1986754.0,1600928311.3319294,0
8.0,10.5025,,,1992211.0,1600928311.392799,0
8.0,2.6125000000000003,,,1998136.0,1600928311.4536686,0
8.0,-2.18,0.370149,34.34,2002677.0,1600928311.514538,0
8.0,-6.785,,,2003483.0,1600928311.5754075,0
8.0,-13.084999999999999,,,2003014.5,1600928311.6362772,0
8.0,-18.18,,,2004615.0,1600928311.6971467,0
8.0,-21.215,0.37271,34.34,2006927.5,1600928311.7580163,0
8.0,-22.005000000000003,,,2009980.0,1600928311.8188858,0
8.0,-35.3275,,,2012477.0,1600928311.8797555,0
8.0,-51.4825,,,2014749.0,1600928311.940625,0
8.0,-32.455,0.375272,34.34,2018453.0,1600928312.0014946,0
8.0,-2.5233333333333334,,,2022171.0,1600928312.062364,0
8.0,12.399999999999999,,,2026134.0,1600928312.1232338,0
8.0,18.689999999999998,,,2031770.5,1600928312.1841033,0
8.0,20.395,,,2036051.0,1600928312.244973,0
8.0,21.244999999999997,0.375272,34.33,2040617.5,1600928312.3058424,0
8.0,22.6125,,,2045337.0,1600928312.3667119,0
8.0,18.8475,,,2049771.5,1600928312.4275815,0
8.0,12.425,,,2054385.0,1600928312.488451,0
8.0,3.8899999999999997,0.373991,34.33,2056194.0,1600928312.5493207,0
8.0,-2.9825,,,2054827.0,1600928312.6101902,0
8.0,-8.933333333333334,,,2054150.5,1600928312.6710598,0
8.0,-19.0375,,,2053911.0,1600928312.7319293,0
8.0,-31.915000000000003,0.373991,34.33,2054206.5,1600928312.792799,0
8.0,-45.06,,,2053188.0,1600928312.8536685,0
8.0,-54.755,,,2050837.5,1600928312.9145381,0
8.0,-26.462500000000002,,,2049563.0,1600928312.9754076,0
8.0,6.9025,0.373991,34.33,2049549.5,1600928313.036277,0
8.0,18.95,,,2051617.0,1600928313.0971467,0
8.0,24.644999999999996,,,2054464.0,1600928313.1580162,0
8.0,30.7075,,,2058297.0,1600928313.218886,0
8.0,30.94333333333333,0.37271,34.33,2063772.0,1600928313.2797554,0
8.0,32.465,,,2070944.0,1600928313.340625,0
8.0,30.845,,,2080292.5,1600928313.4014945,0
8.0,26.6625,,,2088531.0,1600928313.4623642,0
8.0,24.175,0.371429,34.33,2093838.5,1600928313.5232337,0
8.0,18.6075,,,2094739.0,1600928313.5841033,0
8.0,4.4350000000000005,,,2092783.0,1600928313.6449728,0
8.0,-17.1075,,,2091981.0,1600928313.7058425,0
8.0,-37.165,0.371429,34.33,2092254.0,1600928313.766712,0
8.0,-51.73,,,2093487.0,1600928313.8275814,0
8.0,-66.82499999999999,,,2093958.5,1600928313.888451,0
8.0,-54.905,,,2094495.0,1600928313.9493206,0
8.0,-13.052499999999998,0.373991,34.33,2095381.0,1600928314.0101902,0
8.0,14.004999999999999,,,2096995.0,1600928314.0710597,0
8.0,23.7625,,,2098985.0,1600928314.1319294,0
8.0,29.655,,,2101558.5,1600928314.1927989,0
8.0,37.47,0.373991,34.33,2103544.0,1600928314.2536685,0
8.0,47.8925,,,2105819.0,1600928314.314538,0
8.0,53.1025,,,2108057.0,1600928314.3754077,0
8.0,50.03,,,2110248.0,1600928314.4362772,0
8.0,45.875,,,2111211.0,1600928314.4971468,0
8.0,45.64,0.375272,34.33,2105336.0,1600928314.5580163,0
8.0,47.300000000000004,,,2097957.0,1600928314.6188858,0
8.0,52.4975,,,2092625.0,1600928314.6797554,0
8.0,49.552499999999995,,,2088148.0,1600928314.740625,0
8.0,11.532499999999999,0.375272,34.33,2084974.5,1600928314.8014946,0
8.0,-39.575,,,2082074.0,1600928314.862364,0
8.0,-54.7225,,,2078719.0,1600928314.9232337,0
8.0,-29.653333333333336,,,2076526.0,1600928314.9841032,0
8.0,0.40500000000000025,0.373991,34.33,2075465.5,1600928315.044973,0
8.0,7.0575,,,2075279.0,1600928315.1058424,0
8.0,-22.375,,,2075440.0,1600928315.166712,0
8.0,-47.2,,,2075880.0,1600928315.2275815,0
8.0,-49.7625,0.373991,34.33,2076853.5,1600928315.2884512,0
8.0,-39.61,,,2077935.5,1600928315.3493207,0
8.0,-37.1475,,,2078792.0,1600928315.41019,0
8.0,-40.1075,,,2076093.0,1600928315.4710598,0
8.0,-36.1075,0.371429,34.33,2066073.0,1600928315.5319293,0
8.0,-33.77333333333333,,,2056353.0,1600928315.592799,0
8.0,-36.1175,,,2049529.0,1600928315.6536684,0
8.0,-41.5275,,,2044234.0,1600928315.714538,0
8.0,-54.6175,0.370149,34.33,2040575.0,1600928315.7754076,0
8.0,-47.0475,,,2036443.5,1600928315.8362772,0
8.0,-10.945,,,2032832.0,1600928315.8971467,0
8.0,9.9725,,,2030893.5,1600928315.9580164,0
8.0,12.135,0.370149,34.33,2029606.0,1600928316.0188859,0
8.0,8.215,,,2029345.5,1600928316.0797555,0
8.0,1.8199999999999996,,,2029139.0,1600928316.140625,0
8.0,-6.300000000000001,,,2028985.0,1600928316.2014945,0
8.0,-11.072500000000002,0.373991,34.33,2029402.0,1600928316.2623641,0
8.0,-1.6550000000000002,,,2029723.5,1600928316.3232336,0
8.0,23.2575,,,2030877.0,1600928316.3841033,0
8.0,46.67,,,2031222.5,1600928316.4449728,0
8.0,47.6275,0.371429,34.33,2024349.0,1600928316.5058424,0
8.0,34.91,,,2013329.0,1600928316.566712,0
8.0,15.2425,,,2004633.5,1600928316.6275816,0
8.0,-5.76,,,2000465.0,1600928316.688451,0
8.0,1.636666666666667,,,1997645.0,1600928316.7493207,0
8.0,30.934999999999995,0.373991,34.33,1994833.0,1600928316.8101902,0
8.0,47.377500000000005,,,1992097.5,1600928316.87106,0
8.0,44.6575,,,1991314.0,1600928316.9319293,0
8.0,41.6825,,,1991714.5,1600928316.9927988,0
8.0,43.6025,0.37271,34.33,1992460.0,1600928317.0536685,0
8.0,41.5375,,,1993545.0,1600928317.114538,0
8.0,29.6125,,,1994480.0,1600928317.1754076,0
8.0,12.299999999999999,,,1994904.0,1600928317.236277,0
8.0,-2.7125,0.371429,34.31,1996412.0,1600928317.2971468,0
8.0,-12.07,,,1998438.5,1600928317.3580163,0
8.0,-24.299999999999997,,,2000173.0,1600928317.418886,0
8.0,-37.555,,,1994994.0,1600928317.4797554,0
8.0,-49.897499999999994,0.368868,34.31,1987128.0,1600928317.540625,0
8.0,-68.37,,,1982703.5,1600928317.6014946,0
8.0,-67.9575,,,1980096.0,1600928317.6623642,0
8.0,-31.749999999999996,,,1978958.0,1600928317.7232337,0
8.0,-5.8774999999999995,0.367587,34.31,1977970.0,1600928317.7841032,0
8.0,0.34500000000000003,,,1977419.0,1600928317.8449728,0
8.0,6.4433333333333325,,,1978153.0,1600928317.9058423,0
8.0,19.21,,,1979841.0,1600928317.966712,0
8.0,32.0075,0.367587,34.31,1982072.0,1600928318.0275815,0
8.0,38.565,,,1984931.5,1600928318.0884511,0
8.0,37.0475,,,1989104.0,1600928318.1493206,0
8.0,29.55,,,1992789.0,1600928318.2101903,0
8.0,17.7625,0.371429,34.31,1996842.0,1600928318.2710598,0
8.0,6.1725,,,2000822.0,1600928318.3319294,0
8.0,-6.4725,,,1999095.0,1600928318.392799,0
8.0,-15.9225,,,1995737.0,1600928318.4536686,0
8.0,-27.149999999999995,0.368868,34.31,1994774.5,1600928318.514538,0
8.0,-52.6075,,,1995283.0,1600928318.5754075,0
8.0,-53.0075,,,1997296.5,1600928318.6362772,0
8.0,-16.2775,,,1998573.0,1600928318.6971467,0
8.0,9.6525,0.371429,34.31,2000312.0,1600928318.7580163,0
8.0,19.5625,,,2002672.0,1600928318.8188858,0
8.0,23.645000000000003,,,2005747.0,1600928318.8797555,0
8.0,25.215,,,2009179.0,1600928318.940625,0
8.0,30.815000000000005,0.370149,34.31,2012824.0,1600928319.0014946,0
8.0,34.56666666666667,,,2016478.0,1600928319.062364,0
8.0,29.415,,,2020107.0,1600928319.1232338,0
8.0,19.2375,,,2024189.0,1600928319.1841033,0
8.0,6.782500000000001,,,2027355.0,1600928319.244973,0
8.0,-5.279999999999999,0.368868,34.33,2026232.0,1600928319.3058424,0
8.0,-22.1025,,,2023280.0,1600928319.3667119,0
8.0,-40.2175,,,2022246.0,1600928319.4275815,0
8.0,-53.84,,,2023059.0,1600928319.488451,0
8.0,-69.7,0.370149,34.33,2024570.0,1600928319.5493207,0
8.0,-53.815000000000005,,,2025763.5,1600928319.6101902,0
8.0,-10.440000000000001,,,2027632.0,1600928319.6710598,0
8.0,23.275,,,2029688.0,1600928319.7319293,0
8.0,41.795,0.367587,34.33,2032277.0,1600928319.792799,0
8.0,49.597500000000004,,,2035042.0,1600928319.8536685,0
8.0,50.83,,,2038232.0,1600928319.9145381,0
8.0,53.32,,,2041483.0,1600928319.9754076,0
8.0,57.3225,0.367587,34.33,2044690.5,1600928320.036277,0
8.0,54.872499999999995,,,2048649.0,1600928320.0971467,0
8.0,51.4,,,2053203.0,1600928320.1580162,0
8.0,41.365,,,2054814.0,1600928320.218886,0
8.0,27.02666666666667,0.368868,34.34,2053908.0,1600928320.2797554,0
8.0,10.8925,,,2054375.0,1600928320.340625,0
8.0,-12.110000000000001,,,2055380.5,1600928320.4014945,0
8.0,-41.3775,,,2057093.0,1600928320.4623642,0
8.0,-78.3275,0.366306,34.34,2058541.5,1600928320.5232337,0
8.0,-97.67500000000001,,,2059488.0,1600928320.5841033,0
8.0,-71.0575,,,2060774.0,1600928320.6449728,0
8.0,-34.68000000000001,,,2062736.0,1600928320.7058425,0
8.0,-10.8575,0.368868,34.34,2065173.0,1600928320.766712,0
8.0,6.706666666666667,,,2067738.0,1600928320.8275814,0
8.0,20.37,,,2070494.5,1600928320.888451,0
8.0,27.2925,,,2073289.0,1600928320.9493206,0
8.0,26.025,0.367587,34.34,2076320.0,1600928321.0101902,0
8.0,15.9875,,,2081479.0,1600928321.0710597,0
8.0,-1.04,,,2085864.0,1600928321.1319294,0
8.0,-25.439999999999998,,,2083931.5,1600928321.1927989,0
8.0,-34.317499999999995,0.370149,34.31,2079916.0,1600928321.2536685,0
8.0,-32.370000000000005,,,2078175.0,1600928321.314538,0
8.0,-36.21,,,2077605.0,1600928321.3754077,0
8.0,-43.43333333333334,,,2078150.0,1600928321.4362772,0
8.0,-54.677499999999995,,,2078495.0,1600928321.4971468,0
8.0,-55.9075,0.370149,34.31,2078303.5,1600928321.5580163,0
8.0,-13.65,,,2078930.0,1600928321.6188858,0
8.0,26.1825,,,2080465.0,1600928321.6797554,0
8.0,38.4975,,,2081913.0,1600928321.740625,0
8.0,35.89,0.370149,34.31,2083938.0,1600928321.8014946,0
8.0,31.717499999999994,,,2085797.0,1600928321.862364,0
8.0,32.21,,,2087667.5,1600928321.9232337,0
8.0,32.416666666666664,,,2089334.0,1600928321.9841032,0
8.0,28.205,0.368868,34.31,2091515.5,1600928322.044973,0
8.0,25.2675,,,2093956.0,1600928322.1058424,0
8.0,21.02,,,2091131.5,1600928322.166712,0
8.0,13.337499999999999,,,2083541.0,1600928322.2275815,0
8.0,0.1100000000000001,0.365025,34.31,2077311.0,1600928322.2884512,0
8.0,-12.132499999999999,,,2074382.0,1600928322.3493207,0
8.0,-24.57,,,2073168.0,1600928322.41019,0
8.0,-40.529999999999994,,,2072451.0,1600928322.4710598,0
8.0,-28.2825,0.366306,34.31,2070678.0,1600928322.5319293,0
8.0,4.34,,,2069701.5,1600928322.592799,0
8.0,24.090000000000003,,,2070177.0,1600928322.6536684,0
8.0,25.9475,,,2070810.5,1600928322.714538,0
8.0,19.4125,0.366306,34.31,2072363.0,1600928322.7754076,0
8.0,17.2075,,,2075123.5,1600928322.8362772,0
8.0,18.92,,,2078140.0,1600928322.8971467,0
8.0,18.05,,,2081996.0,1600928322.9580164,0
8.0,13.345,0.368868,34.31,2085958.0,1600928323.0188859,0
8.0,5.157500000000001,,,2089523.5,1600928323.0797555,0
8.0,-3.313333333333334,,,2088204.0,1600928323.140625,0
8.0,-9.715,,,2078589.5,1600928323.2014945,0
8.0,-20.8975,0.368868,34.33,2070391.0,1600928323.2623641,0
8.0,-29.53,,,2065423.5,1600928323.3232336,0
8.0,-41.660000000000004,,,2062987.0,1600928323.3841033,0
8.0,-51.7925,,,2060853.5,1600928323.4449728,0
8.0,-23.145,0.367587,34.33,2058612.0,1600928323.5058424,0
8.0,14.072500000000002,,,2056835.5,1600928323.566712,0
8.0,27.525,,,2056424.0,1600928323.6275816,0
8.0,29.8025,,,2057499.5,1600928323.688451,0
8.0,29.600000000000005,,,2059867.0,1600928323.7493207,0
8.0,28.255,0.367587,34.33,2062264.5,1600928323.8101902,0
8.0,28.065,,,2063977.0,1600928323.87106,0
8.0,22.195,,,2064022.5,1600928323.9319293,0
8.0,12.0,,,2065086.0,1600928323.9927988,0
8.0,2.15,0.368868,34.33,2066634.0,1600928324.0536685,0
8.0,-7.1425,,,2060143.0,1600928324.114538,0
8.0,-15.1625,,,2045109.0,1600928324.1754076,0
8.0,-24.584999999999997,,,2033347.0,1600928324.236277,0
8.0,-30.869999999999997,0.365025,34.31,2026291.0,1600928324.2971468,0
8.0,-41.32,,,2022918.0,1600928324.3580163,0
8.0,-48.5175,,,2019617.0,1600928324.418886,0
8.0,-24.125,,,2015055.0,1600928324.4797554,0
8.0,10.0125,0.365025,34.31,2012097.0,1600928324.540625,0
8.0,24.372500000000002,,,2011724.0,1600928324.6014946,0
8.0,25.85,,,2012242.0,1600928324.6623642,0
8.0,25.2875,,,2014086.0,1600928324.7232337,0
8.0,26.8325,0.366306,34.31,2016252.0,1600928324.7841032,0
8.0,26.4525,,,2017963.5,1600928324.8449728,0
8.0,24.886666666666667,,,2020110.0,1600928324.9058423,0
8.0,22.16,,,2023058.0,1600928324.966712,0
8.0,20.427500000000002,0.366306,34.31,,1600928325.0275815,0
8.0,13.2175,,,,1600928325.0884511,0
8.0,6.2275,,,,1600928325.1493206,0
8.0,-4.0525,,,,1600928325.2101903,0
8.0,-17.857499999999998,0.366306,34.33,,1600928325.2710598,0
8.0,-35.317499999999995,,,,1600928325.3319294,0
8.0,-53.0,,,,1600928325.392799,0
8.0,-36.105000000000004,,,,1600928325.4536686,0
8.0,-6.2299999999999995,0.367587,34.33,,1600928325.514538,0
8.0,8.59,,,,1600928325.5754075,0
8.0,10.0225,,,,1600928325.6362772,0
8.0,8.8025,,,,1600928325.6971467,0
8.0,11.762500000000001,0.366306,34.33,,1600928325.7580163,0
8.0,16.105,,,,1600928325.8188858,0
8.0,16.485,,,,1600928325.8797555,0
8.0,10.535,,,,1600928325.940625,0
8.0,7.239999999999999,0.365025,34.33,,1600928326.0014946,0
8.0,1.2966666666666666,,,,1600928326.062364,0
8.0,-2.715,,,,1600928326.1232338,0
8.0,-10.655,,,,1600928326.1841033,0
8.0,-22.79,,,,1600928326.244973,0
8.0,-32.765,0.365025,34.34,,1600928326.3058424,0
8.0,-47.0,,,,1600928326.3667119,0
8.0,-39.959999999999994,,,,1600928326.4275815,0
8.0,-1.6700000000000008,,,,1600928326.488451,0
8.0,21.2525,0.362464,34.34,,1600928326.5493207,0
8.0,23.6325,,,,1600928326.6101902,0
8.0,21.41333333333333,,,,1600928326.6710598,0
8.0,20.935000000000002,,,,1600928326.7319293,0
8.0,22.627499999999998,0.362464,34.34,,1600928326.792799,0
8.0,22.455000000000002,,,,1600928326.8536685,0
8.0,16.87,,,,1600928326.9145381,0
8.0,10.3125,,,,1600928326.9754076,0
8.0,3.8825,0.363745,34.34,,1600928327.036277,0
8.0,-3.1775,,,,1600928327.0971467,0
8.0,-9.372499999999999,,,,1600928327.1580162,0
8.0,-16.615000000000002,,,,1600928327.218886,0
8.0,-21.513333333333332,0.363745,34.31,,1600928327.2797554,0
8.0,-31.355,,,,1600928327.340625,0
8.0,-44.9675,,,,1600928327.4014945,0
8.0,-24.185000000000002,,,,1600928327.4623642,0
8.0,9.342500000000001,0.366306,34.31,,1600928327.5232337,0
8.0,22.235,,,,1600928327.5841033,0
8.0,26.3275,,,,1600928327.6449728,0
8.0,31.349999999999998,,,,1600928327.7058425,0
8.0,32.5775,0.365025,34.31,,1600928327.766712,0
8.0,31.73,,,,1600928327.8275814,0
8.0,28.7425,,,,1600928327.888451,0
8.0,18.23,,,,1600928327.9493206,0
8.0,6.0375,0.365025,34.31,,1600928328.0101902,0
8.0,-3.2475,,,,1600928328.0710597,0
8.0,-9.989999999999998,,,,1600928328.1319294,0
8.0,-15.8475,,,,1600928328.1927989,0
8.0,-27.0,0.365025,34.31,,1600928328.2536685,0
8.0,-37.785,,,,1600928328.314538,0
8.0,-55.37,,,,1600928328.3754077,0
8.0,-62.410000000000004,,,,1600928328.4362772,0
8.0,-36.63,,,,1600928328.4971468,0
8.0,-2.1074999999999995,0.361183,34.31,,1600928328.5580163,0
8.0,12.615,,,,1600928328.6188858,0
8.0,17.627499999999998,,,,1600928328.6797554,0
8.0,18.6975,,,,1600928328.740625,0
8.0,22.802500000000002,0.359902,34.31,,1600928328.8014946,0
8.0,24.9225,,,,1600928328.862364,0
8.0,19.32,,,,1600928328.9232337,0
8.0,14.486666666666666,,,,1600928328.9841032,0
8.0,12.584999999999999,0.359902,34.31,,1600928329.044973,0
8.0,6.59,,,,1600928329.1058424,0
8.0,2.9675,,,,1600928329.166712,0
8.0,-3.065,,,,1600928329.2275815,0
8.0,-13.032499999999999,0.361183,34.31,,1600928329.2884512,0
8.0,-23.912499999999998,,,,1600928329.3493207,0
8.0,-42.9375,,,,1600928329.41019,0
8.0,-41.445,,,,1600928329.4710598,0
8.0,-4.1275,0.361183,34.31,,1600928329.5319293,0
8.0,18.626666666666665,,,,1600928329.592799,0
8.0,24.3825,,,,1600928329.6536684,0
8.0,25.7025,,,,1600928329.714538,0
8.0,24.7625,0.362464,34.31,,1600928329.7754076,0
8.0,30.0475,,,,1600928329.8362772,0
8.0,35.325,,,,1600928329.8971467,0
8.0,25.19,,,,1600928329.9580164,0
8.0,12.8975,0.361183,34.31,,1600928330.0188859,0
8.0,6.4475,,,,1600928330.0797555,0
8.0,4.653333333333333,,,,1600928330.140625,0
8.0,6.475,,,,1600928330.2014945,0
8.0,-2.7199999999999998,0.361183,34.31,,1600928330.2623641,0
8.0,-23.8225,,,,1600928330.3232336,0
8.0,-42.925,,,,1600928330.3841033,0
8.0,-50.114999999999995,,,,1600928330.4449728,0
8.0,-27.0975,0.361183,34.31,,1600928330.5058424,0
8.0,0.16500000000000026,,,,1600928330.566712,0
8.0,7.995,,,,1600928330.6275816,0
8.0,8.6025,,,,1600928330.688451,0
8.0,15.143333333333333,,,,1600928330.7493207,0
8.0,19.142500000000002,0.361183,34.31,,1600928330.8101902,0
8.0,15.2025,,,,1600928330.87106,0
8.0,9.139999999999999,,,,1600928330.9319293,0
8.0,3.365,,,,1600928330.9927988,0
8.0,0.6649999999999999,0.359902,34.31,,1600928331.0536685,0
8.0,-7.685,,,,1600928331.114538,0
8.0,-16.7275,,,,1600928331.1754076,0
8.0,-24.389999999999997,,,,1600928331.236277,0
8.0,-29.522499999999997,0.359902,34.29,,1600928331.2971468,0
8.0,-35.57,,,,1600928331.3580163,0
8.0,-46.3025,,,,1600928331.418886,0
8.0,-36.394999999999996,,,,1600928331.4797554,0
8.0,3.3425,0.35606,34.29,,1600928331.540625,0
8.0,25.5925,,,,1600928331.6014946,0
8.0,29.65,,,,1600928331.6623642,0
8.0,26.819999999999997,,,,1600928331.7232337,0
8.0,27.0625,0.358622,34.29,,1600928331.7841032,0
8.0,28.5925,,,,1600928331.8449728,0
8.0,28.353333333333335,,,,1600928331.9058423,0
8.0,23.835,,,,1600928331.966712,0
8.0,17.525,0.359902,34.29,,1600928332.0275815,0
8.0,9.3025,,,,1600928332.0884511,0
8.0,-0.032500000000000084,,,,1600928332.1493206,0
8.0,-7.260000000000001,,,,1600928332.2101903,0
8.0,-17.9225,0.359902,34.29,,1600928332.2710598,0
8.0,-24.525000000000002,,,,1600928332.3319294,0
8.0,-36.160000000000004,,,,1600928332.392799,0
8.0,-47.58,,,,1600928332.4536686,0
8.0,-26.75,0.358622,34.29,,1600928332.514538,0
8.0,3.375,,,,1600928332.5754075,0
8.0,18.69,,,,1600928332.6362772,0
8.0,23.970000000000002,,,,1600928332.6971467,0
8.0,26.292499999999997,0.358622,34.29,,1600928332.7580163,0
8.0,27.68,,,,1600928332.8188858,0
8.0,27.615,,,,1600928332.8797555,0
8.0,25.275000000000002,,,,1600928332.940625,0
8.0,21.5075,0.35606,34.29,,1600928333.0014946,0
8.0,16.60666666666667,,,,1600928333.062364,0
8.0,10.9575,,,,1600928333.1232338,0
8.0,2.735,,,,1600928333.1841033,0
8.0,-6.2,,,,1600928333.244973,0
8.0,-17.055,0.354779,34.29,,1600928333.3058424,0
8.0,-26.685,,,,1600928333.3667119,0
8.0,-36.667500000000004,,,,1600928333.4275815,0
8.0,-50.1625,,,,1600928333.488451,0
8.0,-39.3475,0.354779,34.29,,1600928333.5493207,0
8.0,-6.485,,,,1600928333.6101902,0
8.0,7.98,,,,1600928333.6710598,0
8.0,12.89,,,2017685.5,1600928333.7319293,0
8.0,15.492500000000001,0.354779,34.29,2020373.0,1600928333.792799,0
8.0,18.235,,,2022673.0,1600928333.8536685,0
8.0,19.490000000000002,,,2026717.5,1600928333.9145381,0
8.0,17.709999999999997,,,2029004.0,1600928333.9754076,0
8.0,10.44,0.357341,34.29,2022418.0,1600928334.036277,0
8.0,-0.2975,,,2013608.0,1600928334.0971467,0
8.0,2.68,,,2009367.5,1600928334.1580162,0
8.0,9.705000000000002,,,2007161.0,1600928334.218886,0
8.0,1.8699999999999999,0.357341,34.31,2006481.5,1600928334.2797554,0
8.0,-15.364999999999998,,,2005162.0,1600928334.340625,0
8.0,-20.334999999999997,,,2004223.5,1600928334.4014945,0
8.0,-14.075,,,2004276.0,1600928334.4623642,0
8.0,-23.7925,0.358622,34.31,2005546.5,1600928334.5232337,0
8.0,-41.81,,,2007336.0,1600928334.5841033,0
8.0,-25.957500000000003,,,2009467.5,1600928334.6449728,0
8.0,3.3025,,,2012075.0,1600928334.7058425,0
8.0,14.915,0.357341,34.31,2014876.0,1600928334.766712,0
8.0,15.6,,,2017451.0,1600928334.8275814,0
8.0,17.265,,,2020709.0,1600928334.888451,0
8.0,20.909999999999997,,,2024294.0,1600928334.9493206,0
8.0,23.355,0.358622,34.31,2026239.5,1600928335.0101902,0
8.0,23.755000000000003,,,2020622.0,1600928335.0710597,0
8.0,19.362499999999997,,,2013612.5,1600928335.1319294,0
8.0,12.345,,,2010235.0,1600928335.1927989,0
8.0,6.5825,0.354779,34.29,2008849.0,1600928335.2536685,0
8.0,-0.7449999999999999,,,2008030.0,1600928335.314538,0
8.0,-7.245,,,2007091.0,1600928335.3754077,0
8.0,-15.036666666666667,,,2007172.5,1600928335.4362772,0
8.0,-25.189999999999998,,,2008622.0,1600928335.4971468,0
8.0,-35.875,0.353498,34.29,2010669.5,1600928335.5580163,0
8.0,-51.2775,,,2013134.0,1600928335.6188858,0
8.0,-53.605000000000004,,,2015950.0,1600928335.6797554,0
8.0,-19.325,,,2019007.0,1600928335.740625,0
8.0,12.424999999999999,0.353498,34.29,2022041.5,1600928335.8014946,0
8.0,21.372500000000002,,,2024981.0,1600928335.862364,0
8.0,22.304999999999996,,,2028622.5,1600928335.9232337,0
8.0,23.423333333333332,,,2032308.0,1600928335.9841032,0
8.0,25.509999999999998,0.354779,34.29,2035145.5,1600928336.044973,0
8.0,27.8725,,,2031649.0,1600928336.1058424,0
8.0,25.372500000000002,,,2025492.0,1600928336.166712,0
8.0,17.95,,,2022016.0,1600928336.2275815,0
8.0,12.305,0.35606,34.31,2020310.0,1600928336.2884512,0
8.0,5.085,,,2019732.0,1600928336.3493207,0
8.0,-3.5074999999999994,,,2019422.5,1600928336.41019,0
8.0,-9.719999999999999,,,2018877.0,1600928336.4710598,0
8.0,-19.82,0.357341,34.31,2019369.0,1600928336.5319293,0
8.0,-31.323333333333334,,,2020931.0,1600928336.592799,0
8.0,-46.5875,,,2023089.0,1600928336.6536684,0
8.0,-57.177499999999995,,,2025345.0,1600928336.714538,0
8.0,-25.3575,0.358622,34.31,2028134.0,1600928336.7754076,0
8.0,12.567499999999999,,,2030464.5,1600928336.8362772,0
8.0,26.315,,,2033469.0,1600928336.8971467,0
8.0,25.3075,,,2036179.5,1600928336.9580164,0
8.0,24.830000000000002,0.35606,34.31,2039775.0,1600928337.0188859,0
8.0,28.765,,,2043065.0,1600928337.0797555,0
8.0,32.54666666666666,,,2044310.0,1600928337.140625,0
8.0,30.162499999999998,,,2037462.5,1600928337.2014945,0
8.0,23.89,0.354779,34.29,2030730.0,1600928337.2623641,0
8.0,18.07,,,2028068.5,1600928337.3232336,0
8.0,7.005000000000001,,,2026560.5,1600928337.3841033,0
8.0,-3.9575,,,2025405.0,1600928337.4449728,0
8.0,-11.755,0.352218,34.29,2023991.0,1600928337.5058424,0
8.0,-23.4125,,,2023226.0,1600928337.566712,0
8.0,-34.1325,,,2023320.0,1600928337.6275816,0
8.0,-51.8825,,,2024956.0,1600928337.688451,0
8.0,-60.48333333333333,,,2026386.5,1600928337.7493207,0
8.0,-28.555,0.352218,34.29,2028242.0,1600928337.8101902,0
8.0,17.2375,,,2030232.0,1600928337.87106,0
8.0,33.03,,,2033275.5,1600928337.9319293,0
8.0,32.7825,,,2035490.0,1600928337.9927988,0
8.0,32.105,0.350937,34.29,2038262.0,1600928338.0536685,0
8.0,32.4075,,,2041061.0,1600928338.114538,0
8.0,34.2925,,,2042053.0,1600928338.1754076,0
8.0,29.4,,,2035336.0,1600928338.236277,0
8.0,19.28,0.353498,34.29,2026697.5,1600928338.2971468,0
8.0,12.603333333333333,,,2020869.0,1600928338.3580163,0
8.0,4.177499999999999,,,2019146.0,1600928338.418886,0
8.0,-5.5425,,,2018053.0,1600928338.4797554,0
8.0,-14.8275,0.354779,34.29,2015960.0,1600928338.540625,0
8.0,-25.63,,,2014612.0,1600928338.6014946,0
8.0,-35.21,,,2014371.0,1600928338.6623642,0
8.0,-51.925,,,2015153.5,1600928338.7232337,0
8.0,-53.0175,0.354779,34.29,2016748.0,1600928338.7841032,0
8.0,-14.234999999999998,,,2018506.0,1600928338.8449728,0
8.0,17.19333333333333,,,2020427.0,1600928338.9058423,0
8.0,26.795,,,2022575.5,1600928338.966712,0
8.0,24.445,0.354779,34.29,2026017.0,1600928339.0275815,0
8.0,23.8325,,,2028773.0,1600928339.0884511,0
8.0,27.1025,,,2032020.5,1600928339.1493206,0
8.0,27.822499999999998,,,2032296.0,1600928339.2101903,0
8.0,23.33,0.354779,34.29,2022499.5,1600928339.2710598,0
8.0,15.805000000000001,,,2013196.0,1600928339.3319294,0
8.0,7.4575,,,2008915.5,1600928339.392799,0
8.0,-3.2874999999999996,,,2006779.0,1600928339.4536686,0
8.0,-9.75,0.350937,34.29,2006373.5,1600928339.514538,0
8.0,-16.7425,,,2004524.0,1600928339.5754075,0
8.0,-28.267500000000002,,,2002831.5,1600928339.6362772,0
8.0,-37.817499999999995,,,2002880.0,1600928339.6971467,0
8.0,-53.3725,0.350937,34.29,2004071.0,1600928339.7580163,0
8.0,-49.239999999999995,,,2005844.0,1600928339.8188858,0
8.0,-8.947500000000002,,,2008097.5,1600928339.8797555,0
8.0,18.925,,,2010534.0,1600928339.940625,0
8.0,23.615000000000002,0.352218,34.29,2013229.5,1600928340.0014946,0
8.0,20.78,,,2016091.0,1600928340.062364,0
8.0,21.335,,,2019294.5,1600928340.1232338,0
8.0,23.8125,,,2022614.0,1600928340.1841033,0
8.0,24.77,,,2024517.5,1600928340.244973,0
8.0,22.0825,0.352218,34.29,2016619.0,1600928340.3058424,0
8.0,15.435,,,2005596.5,1600928340.3667119,0
8.0,6.487500000000001,,,1998381.5,1600928340.4275815,0
8.0,-1.4,,,1996736.0,1600928340.488451,0
8.0,-8.412500000000001,0.350937,34.29,1995843.5,1600928340.5493207,0
8.0,-19.3025,,,1994087.0,1600928340.6101902,0
8.0,-26.176666666666666,,,1992899.5,1600928340.6710598,0
8.0,-37.0375,,,1993023.0,1600928340.7319293,0
8.0,-49.155,0.350937,34.29,1994117.0,1600928340.792799,0
8.0,-24.887499999999996,,,1996021.0,1600928340.8536685,0
8.0,12.059999999999999,,,1998660.5,1600928340.9145381,0
8.0,25.6225,,,2001333.0,1600928340.9754076,0
8.0,24.53,0.353498,34.29,2003984.0,1600928341.036277,0
8.0,22.1725,,,2006866.0,1600928341.0971467,0
8.0,25.25,,,2010286.0,1600928341.1580162,0
8.0,25.755000000000003,,,2013676.0,1600928341.218886,0
8.0,23.153333333333336,0.352218,34.27,2013961.5,1600928341.2797554,0
8.0,16.065,,,2003647.0,1600928341.340625,0
8.0,6.642499999999999,,,1993701.5,1600928341.4014945,0
8.0,-4.297499999999999,,,1989142.0,1600928341.4623642,0
8.0,-12.605,0.352218,34.27,1987460.0,1600928341.5232337,0
8.0,-22.91,,,1986767.0,1600928341.5841033,0
8.0,-32.66,,,1984978.0,1600928341.6449728,0
8.0,-43.739999999999995,,,1983110.0,1600928341.7058425,0
8.0,-60.965,0.349656,34.27,1982979.5,1600928341.766712,0
8.0,-48.419999999999995,,,1984360.5,1600928341.8275814,0
8.0,-9.5625,,,1986444.0,1600928341.888451,0
8.0,18.9425,,,1988861.5,1600928341.9493206,0
8.0,27.087500000000002,0.350937,34.27,1991306.0,1600928342.0101902,0
8.0,28.172500000000003,,,1994003.5,1600928342.0710597,0
8.0,31.67,,,1996777.0,1600928342.1319294,0
8.0,32.94,,,1999942.0,1600928342.1927989,0
8.0,30.6025,0.350937,34.29,2003219.0,1600928342.2536685,0
8.0,23.915,,,1999365.0,1600928342.314538,0
8.0,14.925,,,1986778.0,1600928342.3754077,0
8.0,5.776666666666666,,,1978464.0,1600928342.4362772,0
8.0,-2.9850000000000003,,,1974650.0,1600928342.4971468,0
8.0,-10.5975,0.348375,34.29,1973385.0,1600928342.5580163,0
8.0,-21.7625,,,1971806.0,1600928342.6188858,0
8.0,-31.1025,,,1969072.5,1600928342.6797554,0
8.0,-44.095,,,1967201.0,1600928342.740625,0
8.0,-57.667500000000004,0.349656,34.29,1966862.0,1600928342.8014946,0
8.0,-32.262499999999996,,,1967733.0,1600928342.862364,0
8.0,5.612500000000001,,,1969523.0,1600928342.9232337,0
8.0,20.72,,,1971478.0,1600928342.9841032,0
8.0,25.325,0.350937,34.29,1973303.0,1600928343.044973,0
8.0,25.605,,,1975664.0,1600928343.1058424,0
8.0,27.3775,,,1978303.5,1600928343.166712,0
8.0,29.755,,,1982365.0,1600928343.2275815,0
8.0,28.570000000000004,0.349656,34.29,1983107.0,1600928343.2884512,0
8.0,20.747500000000002,,,1971513.0,1600928343.3493207,0
8.0,12.93,,,1960963.0,1600928343.41019,0
8.0,3.895,,,1955834.5,1600928343.4710598,0
8.0,-4.5,0.349656,34.29,1953665.0,1600928343.5319293,0
8.0,-10.729999999999999,,,1952529.0,1600928343.592799,0
8.0,-20.369999999999997,,,1950078.0,1600928343.6536684,0
8.0,-29.387500000000003,,,1947835.5,1600928343.714538,0
8.0,-41.81249999999999,0.352218,34.29,1947675.0,1600928343.7754076,0
8.0,-59.6975,,,1948944.0,1600928343.8362772,0
8.0,-43.83,,,1950995.0,1600928343.8971467,0
8.0,-3.0524999999999998,,,1953499.5,1600928343.9580164,0
8.0,18.84,0.348375,34.29,1956074.0,1600928344.0188859,0
8.0,29.214999999999996,,,1959157.0,1600928344.0797555,0
8.0,35.79666666666667,,,1962152.0,1600928344.140625,0
8.0,39.8125,,,1965881.0,1600928344.2014945,0
8.0,40.3675,0.347094,34.27,1969701.0,1600928344.2623641,0
8.0,34.62,,,1965766.5,1600928344.3232336,0
8.0,25.28,,,1953918.0,1600928344.3841033,0
8.0,18.73,,,1946718.5,1600928344.4449728,0
8.0,11.002500000000001,0.345814,34.27,1942947.0,1600928344.5058424,0
8.0,4.25,,,1941514.0,1600928344.566712,0
8.0,-2.7824999999999998,,,1939717.0,1600928344.6275816,0
8.0,-13.3475,,,1937999.0,1600928344.688451,0
8.0,-22.50333333333333,,,1938071.5,1600928344.7493207,0
8.0,-30.225,0.347094,34.27,1939364.0,1600928344.8101902,0
8.0,-45.845,,,1941517.0,1600928344.87106,0
8.0,-56.3,,,1944338.0,1600928344.9319293,0
8.0,-28.0825,,,1947269.0,1600928344.9927988,0
8.0,6.74,0.349656,34.27,1950190.0,1600928345.0536685,0
8.0,21.240000000000002,,,1953707.0,1600928345.114538,0
8.0,26.7675,,,1957336.0,1600928345.1754076,0
8.0,28.952499999999997,,,1961643.5,1600928345.236277,0
8.0,30.540000000000003,0.349656,34.29,1965125.0,1600928345.2971468,0
8.0,31.290000000000003,,,1956465.5,1600928345.3580163,0
8.0,28.322499999999998,,,1947011.0,1600928345.418886,0
8.0,19.82,,,1942518.5,1600928345.4797554,0
8.0,13.9025,0.349656,34.29,1940198.0,1600928345.540625,0
8.0,7.555,,,1939639.5,1600928345.6014946,0
8.0,-0.8425,,,1938428.0,1600928345.6623642,0
8.0,-7.3125,,,1937522.5,1600928345.7232337,0
8.0,-14.774999999999999,0.349656,34.29,1938047.0,1600928345.7841032,0
8.0,-24.384999999999998,,,1940001.0,1600928345.8449728,0
8.0,-32.17333333333334,,,1942637.0,1600928345.9058423,0
8.0,-42.69,,,1945530.0,1600928345.966712,0
8.0,-42.12,0.347094,34.29,1949514.5,1600928346.0275815,0
8.0,-10.552500000000002,,,1953149.0,1600928346.0884511,0
8.0,12.2375,,,1956865.5,1600928346.1493206,0
8.0,17.635,,,1960928.0,1600928346.2101903,0
8.0,18.3175,0.348375,34.29,1965365.5,1600928346.2710598,0
8.0,20.1725,,,1969025.0,1600928346.3319294,0
8.0,20.42,,,1962167.0,1600928346.392799,0
8.0,20.825,,,1953915.0,1600928346.4536686,0
8.0,18.423333333333336,0.345814,34.29,1950592.0,1600928346.514538,0
8.0,14.170000000000002,,,1949014.0,1600928346.5754075,0
8.0,8.1125,,,1949002.0,1600928346.6362772,0
8.0,5.04,,,1948393.0,1600928346.6971467,0
8.0,0.2825,0.344533,34.29,1948638.5,1600928346.7580163,0
8.0,-6.3475,,,1949759.0,1600928346.8188858,0
8.0,-11.965,,,1951761.5,1600928346.8797555,0
8.0,-20.1075,,,1954858.0,1600928346.940625,0
8.0,-33.54,0.349656,34.29,1957897.5,1600928347.0014946,0
8.0,-47.410000000000004,,,1961334.0,1600928347.062364,0
8.0,-43.17,,,1964975.5,1600928347.1232338,0
8.0,-13.775,,,1969088.0,1600928347.1841033,0
8.0,6.7925,,,1973335.0,1600928347.244973,0
8.0,12.412500000000001,0.349656,34.27,1977838.0,1600928347.3058424,0
8.0,16.3475,,,1982773.5,1600928347.3667119,0
8.0,19.935,,,1985573.5,1600928347.4275815,0
8.0,19.555,,,1979709.0,1600928347.488451,0
8.0,17.7125,0.349656,34.27,1975717.0,1600928347.5493207,0
8.0,12.88,,,1974927.0,1600928347.6101902,0
8.0,7.283333333333334,,,1975752.5,1600928347.6710598,0
8.0,2.1624999999999996,,,1977008.0,1600928347.7319293,0
8.0,-1.6424999999999998,0.349656,34.27,1977648.5,1600928347.792799,0
8.0,-5.6675,,,1978665.0,1600928347.8536685,0
8.0,-10.915000000000001,,,1981342.5,1600928347.9145381,0
8.0,-17.015,,,1984468.0,1600928347.9754076,0
8.0,-25.5975,0.348375,34.27,1988241.5,1600928348.036277,0
8.0,-36.21000000000001,,,1991782.0,1600928348.0971467,0
8.0,-51.5275,,,1995601.5,1600928348.1580162,0
8.0,-46.04,,,1999507.0,1600928348.218886,0
8.0,-18.093333333333334,0.345814,34.29,2003865.0,1600928348.2797554,0
8.0,3.7875,,,2008347.0,1600928348.340625,0
8.0,12.149999999999999,,,2012749.0,1600928348.4014945,0
8.0,14.4025,,,2017364.0,1600928348.4623642,0
8.0,17.887500000000003,0.345814,34.29,2018197.5,1600928348.5232337,0
8.0,23.8825,,,2013349.0,1600928348.5841033,0
8.0,25.575000000000003,,,2010945.0,1600928348.6449728,0
8.0,23.415,,,2010843.0,1600928348.7058425,0
8.0,19.627499999999998,0.347094,34.29,2012313.0,1600928348.766712,0
8.0,12.703333333333333,,,2014017.5,1600928348.8275814,0
8.0,5.8725,,,2014786.0,1600928348.888451,0
8.0,1.1975,,,2016059.0,1600928348.9493206,0
8.0,-4.4625,0.345814,34.29,2018199.5,1600928349.0101902,0
8.0,-11.405000000000001,,,2022636.0,1600928349.0710597,0
8.0,-19.475,,,2026001.0,1600928349.1319294,0
8.0,-26.6425,,,2029296.0,1600928349.1927989,0
8.0,-40.707499999999996,0.347094,34.27,2032730.0,1600928349.2536685,0
8.0,-43.56,,,2036559.5,1600928349.314538,0
8.0,-13.427499999999998,,,2040406.0,1600928349.3754077,0
8.0,12.020000000000001,,,2044278.0,1600928349.4362772,0
8.0,21.01,,,2048566.0,1600928349.4971468,0
8.0,21.8975,0.348375,34.27,2051951.5,1600928349.5580163,0
8.0,20.905,,,2049438.0,1600928349.6188858,0
8.0,22.4425,,,2042666.5,1600928349.6797554,0
8.0,24.525,,,2038861.0,1600928349.740625,0
8.0,22.515,0.348375,34.27,2037094.5,1600928349.8014946,0
8.0,17.3225,,,2036418.0,1600928349.862364,0
8.0,12.2375,,,2035727.0,1600928349.9232337,0
8.0,6.56,,,2034445.0,1600928349.9841032,0
8.0,0.5375,0.348375,34.27,2034304.5,1600928350.044973,0
8.0,-4.995,,,2035072.0,1600928350.1058424,0
8.0,-14.84,,,2036660.5,1600928350.166712,0
8.0,-23.212500000000002,,,2038725.0,1600928350.2275815,0
8.0,-33.715,0.344533,34.29,2041012.5,1600928350.2884512,0
8.0,-50.080000000000005,,,2043450.0,1600928350.3493207,0
8.0,-35.18,,,2045962.5,1600928350.41019,0
8.0,2.4575,,,2049096.0,1600928350.4710598,0
8.0,19.4675,0.343252,34.29,2051952.5,1600928350.5319293,0
8.0,21.066666666666666,,,2055110.0,1600928350.592799,0
8.0,20.215000000000003,,,2058667.0,1600928350.6536684,0
8.0,19.7225,,,2059389.0,1600928350.714538,0
8.0,23.622500000000002,0.343252,34.29,2051153.0,1600928350.7754076,0
8.0,25.402499999999996,,,2041435.0,1600928350.8362772,0
8.0,19.045,,,2038084.0,1600928350.8971467,0
8.0,11.767500000000002,,,2036361.5,1600928350.9580164,0
8.0,3.2,0.343252,34.29,2035058.0,1600928351.0188859,0
8.0,-5.955,,,2033065.0,1600928351.0797555,0
8.0,-11.37,,,2032077.0,1600928351.140625,0
8.0,-18.3725,,,2032175.5,1600928351.2014945,0
8.0,-29.4225,0.345814,34.27,2033430.0,1600928351.2623641,0
8.0,-39.36,,,2034910.5,1600928351.3232336,0
8.0,-59.21,,,2036951.0,1600928351.3841033,0
8.0,-68.13999999999999,,,2039042.0,1600928351.4449728,0
8.0,-35.35,0.347094,34.27,2041273.0,1600928351.5058424,0
8.0,-6.195,,,2043842.5,1600928351.566712,0
8.0,-5.14,,,2046609.0,1600928351.6275816,0
8.0,-12.385,,,2049631.5,1600928351.688451,0
8.0,-13.166666666666666,,,2053008.0,1600928351.7493207,0
8.0,-0.10499999999999998,0.347094,34.27,2054075.0,1600928351.8101902,0
8.0,31.634999999999998,,,2046690.0,1600928351.87106,0
8.0,62.28999999999999,,,2038594.5,1600928351.9319293,0
8.0,70.57000000000001,,,2034684.0,1600928351.9927988,0
8.0,61.1425,0.347094,34.27,2033269.5,1600928352.0536685,0
8.0,44.4275,,,2032865.0,1600928352.114538,0
8.0,26.025,,,2031321.5,1600928352.1754076,0
8.0,9.3775,,,2029860.0,1600928352.236277,0
8.0,-8.5025,0.345814,34.27,2029883.5,1600928352.2971468,0
8.0,-22.563333333333333,,,2031059.5,1600928352.3580163,0
8.0,-38.32749999999999,,,2033126.0,1600928352.418886,0
8.0,-58.510000000000005,,,2035186.5,1600928352.4797554,0
8.0,-40.43000000000001,0.343252,34.27,2037324.0,1600928352.540625,0
8.0,3.4974999999999996,,,2039952.5,1600928352.6014946,0
8.0,25.595000000000002,,,2042806.0,1600928352.6623642,0
8.0,30.6425,,,2045719.0,1600928352.7232337,0
8.0,33.010000000000005,0.343252,34.27,2048850.0,1600928352.7841032,0
8.0,35.545,,,2051753.0,1600928352.8449728,0
8.0,37.02333333333333,,,2048161.0,1600928352.9058423,0
8.0,35.375,,,2038762.5,1600928352.966712,0
8.0,28.699999999999996,0.341971,34.27,2033002.0,1600928353.0275815,0
8.0,22.2825,,,2031139.5,1600928353.0884511,0
8.0,13.96,,,2030773.0,1600928353.1493206,0
8.0,3.9,,,2029758.5,1600928353.2101903,0
8.0,-5.0625,0.341971,34.25,2028118.0,1600928353.2710598,0
8.0,-16.695,,,2027296.0,1600928353.3319294,0
8.0,-32.81,,,2028026.0,1600928353.392799,0
8.0,-47.3625,,,2029744.0,1600928353.4536686,0
8.0,-64.07333333333334,0.341971,34.25,2031730.0,1600928353.514538,0
8.0,-66.195,,,2033897.5,1600928353.5754075,0
8.0,-25.5125,,,2036401.0,1600928353.6362772,0
8.0,13.969999999999999,,,2038940.5,1600928353.6971467,0
8.0,26.7975,0.344533,34.25,2041484.0,1600928353.7580163,0
8.0,29.6175,,,2044675.0,1600928353.8188858,0
8.0,31.1475,,,2048045.0,1600928353.8797555,0
8.0,32.9775,,,2048813.0,1600928353.940625,0
8.0,33.25,0.343252,34.25,2036907.5,1600928354.0014946,0
8.0,30.23,,,2028135.0,1600928354.062364,0
8.0,23.425,,,2024405.0,1600928354.1232338,0
8.0,15.440000000000001,,,2022181.0,1600928354.1841033,0
8.0,7.615,,,2020255.5,1600928354.244973,0
8.0,-1.0750000000000002,0.343252,34.27,2017321.0,1600928354.3058424,0
8.0,-9.225000000000001,,,2015385.5,1600928354.3667119,0
8.0,-20.22,,,2014771.0,1600928354.4275815,0
8.0,-31.615000000000002,,,2015323.5,1600928354.488451,0
8.0,-44.394999999999996,0.345814,34.27,2016661.0,1600928354.5493207,0
8.0,-56.730000000000004,,,2017537.0,1600928354.6101902,0
8.0,-38.63,,,2018998.0,1600928354.6710598,0
8.0,-0.21750000000000025,,,2021022.5,1600928354.7319293,0
8.0,22.13,0.341971,34.27,2023234.0,1600928354.792799,0
8.0,22.9575,,,2025476.0,1600928354.8536685,0
8.0,20.145,,,2028305.0,1600928354.9145381,0
8.0,23.457500000000003,,,2030593.5,1600928354.9754076,0
8.0,27.2375,0.341971,34.27,2024886.0,1600928355.036277,0
8.0,26.622500000000002,,,2013034.5,1600928355.0971467,0
8.0,17.915,,,2005322.0,1600928355.1580162,0
8.0,8.995,,,2001941.0,1600928355.218886,0
8.0,1.4366666666666668,0.341971,34.25,1999560.0,1600928355.2797554,0
8.0,-4.39,,,1997635.5,1600928355.340625,0
8.0,-13.285,,,1994804.0,1600928355.4014945,0
8.0,-25.177500000000002,,,1994062.0,1600928355.4623642,0
8.0,-35.9475,0.343252,34.25,1994669.0,1600928355.5232337,0
8.0,-52.7875,,,1995799.5,1600928355.5841033,0
8.0,-62.495000000000005,,,1997482.0,1600928355.6449728,0
8.0,-27.1225,,,1999519.5,1600928355.7058425,0
8.0,13.43,0.344533,34.25,2002451.5,1600928355.766712,0
8.0,27.53333333333333,,,2004611.0,1600928355.8275814,0
8.0,31.11,,,2007921.0,1600928355.888451,0
8.0,34.839999999999996,,,2011136.0,1600928355.9493206,0
8.0,37.4425,0.345814,34.25,2014691.5,1600928356.0101902,0
8.0,40.197500000000005,,,2015827.0,1600928356.0710597,0
8.0,34.705000000000005,,,2006094.5,1600928356.1319294,0
8.0,21.27,,,1997836.0,1600928356.1927989,0
8.0,9.23,0.345814,34.27,1994329.0,1600928356.2536685,0
8.0,-2.585,,,1992745.0,1600928356.314538,0
8.0,-13.2025,,,1991912.5,1600928356.3754077,0
8.0,-19.486666666666665,,,1989833.0,1600928356.4362772,0
8.0,-29.490000000000002,,,1988442.5,1600928356.4971468,0
8.0,-40.25,0.344533,34.27,1988699.0,1600928356.5580163,0
8.0,-55.394999999999996,,,1989939.5,1600928356.6188858,0
8.0,-71.58,,,1991946.0,1600928356.6797554,0
8.0,-41.417500000000004,,,1994175.5,1600928356.740625,0
8.0,6.0075,0.341971,34.27,1996212.0,1600928356.8014946,0
8.0,25.9125,,,1998719.0,1600928356.862364,0
8.0,32.195,,,2001488.0,1600928356.9232337,0
8.0,35.38666666666666,,,2004522.5,1600928356.9841032,0
8.0,36.8725,0.34069,34.27,2007779.0,1600928357.044973,0
8.0,37.19,,,2011278.5,1600928357.1058424,0
8.0,33.48,,,2009978.0,1600928357.166712,0
8.0,26.6325,,,2001925.5,1600928357.2275815,0
8.0,18.16,0.34069,34.27,1996124.5,1600928357.2884512,0
8.0,8.344999999999999,,,1995254.0,1600928357.3493207,0
8.0,-1.1875,,,1995657.0,1600928357.41019,0
8.0,-9.665,,,1995086.0,1600928357.4710598,0
8.0,-20.6525,0.341971,34.27,1994392.0,1600928357.5319293,0
8.0,-33.21666666666667,,,1994831.0,1600928357.592799,0
8.0,-43.98,,,1996781.0,1600928357.6536684,0
8.0,-61.987500000000004,,,1999352.0,1600928357.714538,0
8.0,-75.1225,0.344533,34.27,2001819.0,1600928357.7754076,0
8.0,-34.3025,,,2004416.0,1600928357.8362772,0
8.0,13.5975,,,2007308.5,1600928357.8971467,0
8.0,31.965,,,2010261.0,1600928357.9580164,0
8.0,36.8425,0.344533,34.27,2013823.0,1600928358.0188859,0
8.0,38.9175,,,2017051.0,1600928358.0797555,0
8.0,41.06333333333333,,,2019925.5,1600928358.140625,0
8.0,43.25,,,2014994.0,1600928358.2014945,0
8.0,38.78,0.344533,34.25,2006669.0,1600928358.2623641,0
8.0,29.7225,,,2002605.0,1600928358.3232336,0
8.0,21.235000000000003,,,2000281.5,1600928358.3841033,0
8.0,10.737499999999999,,,1999491.0,1600928358.4449728,0
8.0,1.5225,0.344533,34.25,1998591.0,1600928358.5058424,0
8.0,-8.605,,,1997585.0,1600928358.566712,0
8.0,-19.3375,,,1997700.5,1600928358.6275816,0
8.0,-34.120000000000005,,,1999127.0,1600928358.688451,0
8.0,-46.42333333333334,,,2001231.5,1600928358.7493207,0
8.0,-63.17,0.34069,34.25,2003464.0,1600928358.8101902,0
8.0,-79.73249999999999,,,2006065.0,1600928358.87106,0
8.0,-43.255,,,2008782.0,1600928358.9319293,0
8.0,13.5625,,,2011817.0,1600928358.9927988,0
8.0,31.8425,0.34069,34.25,2016005.0,1600928359.0536685,0
8.0,28.264999999999997,,,2019317.0,1600928359.114538,0
8.0,25.9325,,,2022047.5,1600928359.1754076,0
8.0,30.472500000000004,,,2017082.0,1600928359.236277,0
8.0,36.7675,0.33941,34.25,2007118.5,1600928359.2971468,0
8.0,31.689999999999998,,,2001470.0,1600928359.3580163,0
8.0,21.932499999999997,,,1998318.5,1600928359.418886,0
8.0,13.7775,,,1996496.0,1600928359.4797554,0
8.0,7.6674999999999995,0.33941,34.25,1994688.5,1600928359.540625,0
8.0,10.7125,,,1992837.0,1600928359.6014946,0
8.0,10.27,,,1992204.5,1600928359.6623642,0
8.0,-5.9125,,,1992710.0,1600928359.7232337,0
8.0,-15.217500000000001,0.343252,34.25,1994084.5,1600928359.7841032,0
8.0,-2.2375,,,1995928.0,1600928359.8449728,0
8.0,-6.186666666666667,,,1998425.0,1600928359.9058423,0
8.0,-20.475,,,2000710.0,1600928359.966712,0
8.0,13.1925,0.343252,34.25,2003320.0,1600928360.0275815,0
8.0,64.3175,,,2006279.0,1600928360.0884511,0
8.0,78.8175,,,2009539.5,1600928360.1493206,0
8.0,53.795,,,2013192.0,1600928360.2101903,0
8.0,6.657500000000001,0.344533,34.25,2016136.0,1600928360.2710598,0
8.0,-15.055,,,2011435.0,1600928360.3319294,0
8.0,-20.46,,,2001337.5,1600928360.392799,0
8.0,-32.9275,,,1995609.0,1600928360.4536686,0
8.0,-42.093333333333334,0.343252,34.25,1992890.5,1600928360.514538,0
8.0,-50.8775,,,1991452.0,1600928360.5754075,0
8.0,-61.405,,,1990001.0,1600928360.6362772,0
8.0,-56.0075,,,1988383.0,1600928360.6971467,0
8.0,-42.47,0.34069,34.25,1988050.0,1600928360.7580163,0
8.0,-42.05,,,1989259.0,1600928360.8188858,0
8.0,-48.1925,,,1990810.0,1600928360.8797555,0
8.0,-64.8875,,,1993316.5,1600928360.940625,0
8.0,-54.68,0.33941,34.25,1995775.0,1600928361.0014946,0
8.0,0.10000000000000024,,,1998227.0,1600928361.062364,0
8.0,43.825,,,2000915.0,1600928361.1232338,0
8.0,54.615,,,2004063.5,1600928361.1841033,0
8.0,52.252500000000005,,,2007620.0,1600928361.244973,0
8.0,51.714999999999996,0.33941,34.23,2011321.5,1600928361.3058424,0
8.0,53.512499999999996,,,2014950.0,1600928361.3667119,0
8.0,55.1375,,,2011024.0,1600928361.4275815,0
8.0,46.0475,,,2002302.0,1600928361.488451,0
8.0,31.245,0.33941,34.23,1997670.5,1600928361.5493207,0
8.0,16.7775,,,1995670.0,1600928361.6101902,0
8.0,1.9333333333333333,,,1995220.0,1600928361.6710598,0
8.0,-9.475,,,1994483.0,1600928361.7319293,0
8.0,-24.8725,0.343252,34.23,1993568.5,1600928361.792799,0
8.0,-39.045,,,1993631.0,1600928361.8536685,0
8.0,-49.397499999999994,,,1994449.0,1600928361.9145381,0
8.0,-68.0325,,,1995500.0,1600928361.9754076,0
8.0,-61.3925,0.344533,34.23,1997453.5,1600928362.036277,0
8.0,-9.1225,,,1999635.0,1600928362.0971467,0
8.0,24.765,,,2002768.0,1600928362.1580162,0
8.0,32.9125,,,2005715.0,1600928362.218886,0
8.0,34.46666666666667,0.344533,34.25,2009101.0,1600928362.2797554,0
8.0,34.715,,,2014096.5,1600928362.340625,0
8.0,32.975,,,2017342.0,1600928362.4014945,0
8.0,30.835,,,2018932.0,1600928362.4623642,0
8.0,25.015,0.343252,34.25,2012318.0,1600928362.5232337,0
8.0,15.34,,,2004121.5,1600928362.5841033,0
8.0,6.779999999999999,,,2000361.0,1600928362.6449728,0
8.0,-6.612500000000001,,,1999136.5,1600928362.7058425,0
8.0,-16.302500000000002,0.341971,34.25,1998852.0,1600928362.766712,0
8.0,-22.796666666666667,,,1998081.5,1600928362.8275814,0
8.0,-30.802500000000002,,,1996554.0,1600928362.888451,0
8.0,-40.13249999999999,,,1996318.0,1600928362.9493206,0
8.0,-57.495000000000005,0.34069,34.25,1997243.0,1600928363.0101902,0
8.0,-54.445,,,1999014.0,1600928363.0710597,0
8.0,-9.342500000000001,,,2001630.0,1600928363.1319294,0
8.0,24.26,,,2005182.0,1600928363.1927989,0
8.0,31.6525,0.33941,34.25,2008079.0,1600928363.2536685,0
8.0,33.305,,,2011261.5,1600928363.314538,0
8.0,35.3225,,,2014607.0,1600928363.3754077,0
8.0,35.99333333333334,,,2018527.5,1600928363.4362772,0
8.0,34.3175,,,2022391.0,1600928363.4971468,0
8.0,29.67,0.33941,34.25,2016185.5,1600928363.5580163,0
8.0,21.8375,,,2006749.0,1600928363.6188858,0
8.0,12.327499999999999,,,2001135.0,1600928363.6797554,0
8.0,0.7325000000000002,,,1998650.0,1600928363.740625,0
8.0,-4.9375,0.341971,34.25,1997429.0,1600928363.8014946,0
8.0,-11.639999999999999,,,1996168.0,1600928363.862364,0
8.0,-23.167500000000004,,,1994031.0,1600928363.9232337,0
8.0,-33.68,,,1993200.5,1600928363.9841032,0
8.0,-52.8725,0.344533,34.25,1993716.0,1600928364.044973,0
8.0,-65.74000000000001,,,1994744.5,1600928364.1058424,0
8.0,-31.36,,,1995940.0,1600928364.166712,0
8.0,8.739999999999998,,,1997377.5,1600928364.2275815,0
8.0,21.302500000000002,0.344533,34.23,1998740.0,1600928364.2884512,0
8.0,21.017500000000002,,,2000782.0,1600928364.3493207,0
8.0,23.1675,,,2003389.0,1600928364.41019,0
8.0,25.667499999999997,,,2006037.5,1600928364.4710598,0
8.0,27.24,0.343252,34.23,2007642.0,1600928364.5319293,0
8.0,24.76,,,1995998.0,1600928364.592799,0
8.0,19.495,,,1983681.0,1600928364.6536684,0
8.0,13.6225,,,1977057.0,1600928364.714538,0
8.0,4.987499999999999,0.343252,34.23,1972779.0,1600928364.7754076,0
8.0,-4.3275,,,1969710.5,1600928364.8362772,0
8.0,-12.9925,,,1966343.0,1600928364.8971467,0
8.0,-22.0775,,,1963425.0,1600928364.9580164,0
8.0,-31.8,0.34069,34.23,1962294.0,1600928365.0188859,0
8.0,-47.965,,,1962125.0,1600928365.0797555,0
8.0,-54.04666666666666,,,1962927.0,1600928365.140625,0
8.0,-27.027500000000003,,,1964102.0,1600928365.2014945,0
8.0,5.255,0.341971,34.25,1965797.0,1600928365.2623641,0
8.0,17.4525,,,1967897.0,1600928365.3232336,0
8.0,22.33,,,1970370.0,1600928365.3841033,0
8.0,23.84,,,1973373.0,1600928365.4449728,0
8.0,23.689999999999998,0.33941,34.25,1976814.0,1600928365.5058424,0
8.0,22.085,,,1979526.5,1600928365.566712,0
8.0,18.4925,,,1967557.0,1600928365.6275816,0
8.0,12.96,,,1956963.0,1600928365.688451,0
8.0,7.066666666666666,,,1952421.5,1600928365.7493207,0
8.0,3.3724999999999996,0.344533,34.25,1949913.0,1600928365.8101902,0
8.0,-2.3075,,,1948609.5,1600928365.87106,0
8.0,-8.4925,,,1946539.0,1600928365.9319293,0
8.0,-16.5375,,,1945340.5,1600928365.9927988,0
8.0,-25.7075,0.343252,34.25,1945666.0,1600928366.0536685,0
8.0,-35.7475,,,1947318.0,1600928366.114538,0
8.0,-50.045,,,1949598.0,1600928366.1754076,0
8.0,-40.835,,,1952148.5,1600928366.236277,0
8.0,-5.630000000000001,0.341971,34.25,1954833.0,1600928366.2971468,0
8.0,11.703333333333333,,,1958199.5,1600928366.3580163,0
8.0,17.5875,,,1961491.0,1600928366.418886,0
8.0,21.560000000000002,,,1965455.5,1600928366.4797554,0
8.0,23.4375,0.343252,34.25,1969359.0,1600928366.540625,0
8.0,25.945,,,1973582.0,1600928366.6014946,0
8.0,26.6825,,,1971061.0,1600928366.6623642,0
8.0,22.892500000000002,,,1963473.5,1600928366.7232337,0
8.0,16.362499999999997,0.341971,34.25,1959975.0,1600928366.7841032,0
8.0,10.525,,,1959575.5,1600928366.8449728,0
8.0,4.35,,,1960438.0,1600928366.9058423,0
8.0,0.02749999999999997,,,1960904.5,1600928366.966712,0
8.0,-4.050000000000001,0.341971,34.25,1961057.0,1600928367.0275815,0
8.0,-13.7875,,,1962512.5,1600928367.0884511,0
8.0,-26.3725,,,1964919.0,1600928367.1493206,0
8.0,-40.2925,,,1968316.5,1600928367.2101903,0
8.0,-54.7125,0.33941,34.23,1973050.5,1600928367.2710598,0
8.0,-35.5025,,,1976871.0,1600928367.3319294,0
8.0,-1.6825,,,1980794.0,1600928367.392799,0
8.0,11.7025,,,1985066.0,1600928367.4536686,0
8.0,14.676666666666668,0.338129,34.23,1989726.5,1600928367.514538,0
8.0,15.585,,,1994659.0,1600928367.5754075,0
8.0,15.7825,,,1999164.0,1600928367.6362772,0
8.0,16.3675,,,1997884.0,1600928367.6971467,0
8.0,16.91,0.343252,34.23,1992818.0,1600928367.7580163,0
8.0,11.435,,,1990942.0,1600928367.8188858,0
8.0,7.194999999999999,,,1990956.5,1600928367.8797555,0
8.0,2.1275,,,1991902.0,1600928367.940625,0
8.0,-3.0249999999999995,0.344533,34.23,1992756.5,1600928368.0014946,0
8.0,-5.78,,,1993672.0,1600928368.062364,0
8.0,-12.68,,,1995603.0,1600928368.1232338,0
8.0,-21.2,,,1998488.0,1600928368.1841033,0
8.0,-34.475,,,2001744.5,1600928368.244973,0
8.0,-49.03,0.343252,34.23,2005499.0,1600928368.3058424,0
8.0,-31.167499999999997,,,2008866.0,1600928368.3667119,0
8.0,1.9775,,,2012382.0,1600928368.4275815,0
8.0,13.615,,,2016487.5,1600928368.488451,0
8.0,13.620000000000001,0.341971,34.23,2020778.0,1600928368.5493207,0
8.0,15.15,,,2024976.0,1600928368.6101902,0
8.0,17.816666666666666,,,2029433.0,1600928368.6710598,0
8.0,17.2175,,,2032604.0,1600928368.7319293,0
8.0,13.5575,0.34069,34.23,2029475.0,1600928368.792799,0
8.0,10.792499999999999,,,2024056.0,1600928368.8536685,0
8.0,8.9675,,,2021438.5,1600928368.9145381,0
8.0,3.0775,,,2020621.0,1600928368.9754076,0
8.0,-4.140000000000001,0.33941,34.23,2020625.0,1600928369.036277,0
8.0,-7.6075,,,2020008.0,1600928369.0971467,0
8.0,-14.1075,,,2020262.0,1600928369.1580162,0
8.0,-22.03,,,2021410.0,1600928369.218886,0
8.0,-35.75,0.341971,34.23,2023401.5,1600928369.2797554,0
8.0,-40.557500000000005,,,2025648.0,1600928369.340625,0
8.0,-10.5975,,,2028047.5,1600928369.4014945,0
8.0,22.994999999999997,,,2030820.0,1600928369.4623642,0
8.0,33.235,0.33941,34.23,2033626.0,1600928369.5232337,0
8.0,30.1525,,,2036636.0,1600928369.5841033,0
8.0,25.042499999999997,,,2040103.0,1600928369.6449728,0
8.0,23.447499999999998,,,2043558.0,1600928369.7058425,0
8.0,25.252499999999998,0.34069,34.23,2047294.0,1600928369.766712,0
8.0,24.456666666666667,,,2047664.0,1600928369.8275814,0
8.0,17.67,,,2040084.0,1600928369.888451,0
8.0,10.642499999999998,,,2034112.0,1600928369.9493206,0
8.0,5.27,0.343252,34.23,2031372.0,1600928370.0101902,0
8.0,-1.6025,,,2029287.0,1600928370.0710597,0
8.0,-11.0525,,,2028162.0,1600928370.1319294,0
8.0,-20.405,,,2026486.0,1600928370.1927989,0
8.0,-28.5325,0.343252,34.23,2025609.0,1600928370.2536685,0
8.0,-42.2425,,,2025891.0,1600928370.314538,0
8.0,-40.697500000000005,,,2027430.0,1600928370.3754077,0
8.0,-14.589999999999998,,,2028993.0,1600928370.4362772,0
8.0,8.0875,,,2030720.0,1600928370.4971468,0
8.0,15.932500000000001,0.341971,34.23,2032648.0,1600928370.5580163,0
8.0,16.12,,,2034777.5,1600928370.6188858,0
8.0,16.655,,,2037132.0,1600928370.6797554,0
8.0,19.67,,,2039791.0,1600928370.740625,0
8.0,22.557499999999997,0.343252,34.23,2043491.0,1600928370.8014946,0
8.0,19.155,,,2042253.0,1600928370.862364,0
8.0,12.085,,,2032768.0,1600928370.9232337,0
8.0,5.036666666666666,,,2025734.0,1600928370.9841032,0
8.0,-2.4975,0.341971,34.23,2023004.5,1600928371.044973,0
8.0,-8.274999999999999,,,2021461.0,1600928371.1058424,0
8.0,-16.01,,,2019836.0,1600928371.166712,0
8.0,-22.369999999999997,,,2017825.0,1600928371.2275815,0
8.0,-35.875,0.33941,34.23,2016627.0,1600928371.2884512,0
8.0,-43.0475,,,2016820.0,1600928371.3493207,0
8.0,-17.0775,,,2018420.0,1600928371.41019,0
8.0,12.11,,,2020199.0,1600928371.4710598,0
8.0,22.0275,0.33941,34.23,2022165.5,1600928371.5319293,0
8.0,23.87666666666667,,,2024580.0,1600928371.592799,0
8.0,23.08,,,2027488.0,1600928371.6536684,0
8.0,22.625,,,2030563.0,1600928371.714538,0
8.0,24.262500000000003,0.34069,34.23,2033530.5,1600928371.7754076,0
8.0,23.56,,,2036992.0,1600928371.8362772,0
8.0,17.2825,,,2035577.5,1600928371.8971467,0
8.0,6.6975,,,2026663.0,1600928371.9580164,0
8.0,-1.255,0.344533,34.23,2020668.0,1600928372.0188859,0
8.0,-7.245000000000001,,,2017758.0,1600928372.0797555,0
8.0,-13.243333333333334,,,2017765.0,1600928372.140625,0
8.0,-13.6125,,,2017609.0,1600928372.2014945,0
8.0,-26.475,0.343252,34.23,2016423.0,1600928372.2623641,0
8.0,-41.08,,,2016274.0,1600928372.3232336,0
8.0,-22.16,,,2017624.0,1600928372.3841033,0
8.0,-1.8225,,,2019682.5,1600928372.4449728,0
8.0,3.5575,0.344533,34.23,2022406.0,1600928372.5058424,0
8.0,9.0825,,,2024577.5,1600928372.566712,0
8.0,15.655000000000001,,,2027256.0,1600928372.6275816,0
8.0,19.875,,,2030034.5,1600928372.688451,0
8.0,23.05,,,2033110.0,1600928372.7493207,0
8.0,23.3425,0.34069,34.23,2036536.5,1600928372.8101902,0
8.0,20.355,,,2039717.0,1600928372.87106,0
8.0,15.057500000000001,,,2035327.5,1600928372.9319293,0
8.0,5.640000000000001,,,2026593.0,1600928372.9927988,0
8.0,-4.3975,0.34069,34.23,2022344.5,1600928373.0536685,0
8.0,-14.3825,,,2020658.0,1600928373.114538,0
8.0,-22.59,,,2021033.0,1600928373.1754076,0
8.0,-35.7025,,,2020458.0,1600928373.236277,0
8.0,-43.61,0.34069,34.21,2019093.0,1600928373.2971468,0
8.0,-21.279999999999998,,,2018995.0,1600928373.3580163,0
8.0,8.127500000000001,,,2020163.5,1600928373.418886,0
8.0,22.0725,,,2021832.0,1600928373.4797554,0
8.0,24.810000000000002,0.33941,34.21,2024403.5,1600928373.540625,0
8.0,26.805,,,2026712.0,1600928373.6014946,0
8.0,27.375,,,2029244.0,1600928373.6623642,0
8.0,27.68,,,2032276.0,1600928373.7232337,0
8.0,25.637500000000003,0.34069,34.21,2034958.0,1600928373.7841032,0
8.0,18.755,,,2038160.0,1600928373.8449728,0
8.0,11.053333333333335,,,2037452.5,1600928373.9058423,0
8.0,4.172499999999999,,,2028111.0,1600928373.966712,0
8.0,-0.795,0.341971,34.21,2020394.5,1600928374.0275815,0
8.0,-4.9750000000000005,,,2015508.5,1600928374.0884511,0
8.0,-10.170000000000002,,,2014345.0,1600928374.1493206,0
8.0,-17.175,,,2012684.5,1600928374.2101903,0
8.0,-30.3575,0.343252,34.23,2010233.0,1600928374.2710598,0
8.0,-24.675,,,2009333.5,1600928374.3319294,0
8.0,-3.6275000000000004,,,2009628.0,1600928374.392799,0
8.0,7.435,,,2011015.0,1600928374.4536686,0
8.0,8.423333333333334,0.341971,34.23,2012968.0,1600928374.514538,0
8.0,6.1675,,,2015284.0,1600928374.5754075,0
8.0,8.15,,,2017484.0,1600928374.6362772,0
8.0,10.9475,,,2020046.0,1600928374.6971467,0
8.0,10.754999999999999,0.33941,34.23,2022923.0,1600928374.7580163,0
8.0,8.6125,,,2026377.0,1600928374.8188858,0
8.0,7.7125,,,2024964.0,1600928374.8797555,0
8.0,5.195,,,2013122.5,1600928374.940625,0
8.0,0.135,0.33941,34.23,2003366.0,1600928375.0014946,0
8.0,-5.376666666666668,,,1998638.0,1600928375.062364,0
8.0,-12.69,,,1995861.0,1600928375.1232338,0
8.0,-20.7275,,,1993305.5,1600928375.1841033,0
8.0,-31.662499999999998,,,1989931.0,1600928375.244973,0
8.0,-40.269999999999996,0.34069,34.21,1987901.0,1600928375.3058424,0
8.0,-23.627499999999998,,,1987090.0,1600928375.3667119,0
8.0,-3.1400000000000006,,,1987778.0,1600928375.4275815,0
8.0,5.4175,,,1988983.0,1600928375.488451,0
8.0,8.4875,0.33941,34.21,1990249.5,1600928375.5493207,0
8.0,10.23,,,1991474.0,1600928375.6101902,0
8.0,13.126666666666665,,,1993682.5,1600928375.6710598,0
8.0,16.2275,,,1995721.0,1600928375.7319293,0
8.0,15.6275,0.343252,34.21,1998717.5,1600928375.792799,0
8.0,10.795,,,1997626.0,1600928375.8536685,0
8.0,7.1075,,,1986150.0,1600928375.9145381,0
8.0,3.42,,,1976115.0,1600928375.9754076,0
8.0,-0.3,0.341971,34.21,1970634.0,1600928376.036277,0
8.0,-6.495000000000001,,,1967727.0,1600928376.0971467,0
8.0,-14.1275,,,1965394.0,1600928376.1580162,0
8.0,-20.3475,,,1962187.0,1600928376.218886,0
8.0,-26.653333333333336,0.34069,34.23,1960470.0,1600928376.2797554,0
8.0,-36.525,,,1960315.0,1600928376.340625,0
8.0,-28.767500000000002,,,1960815.0,1600928376.4014945,0
8.0,-7.7475000000000005,,,1962044.5,1600928376.4623642,0
8.0,5.57,0.341971,34.23,1963963.0,1600928376.5232337,0
8.0,11.0,,,1966171.5,1600928376.5841033,0
8.0,13.007499999999999,,,1968760.0,1600928376.6449728,0
8.0,14.6975,,,1971663.0,1600928376.7058425,0
8.0,15.377500000000001,0.338129,34.23,1975355.0,1600928376.766712,0
8.0,14.173333333333332,,,1978093.0,1600928376.8275814,0
8.0,11.19,,,1974284.0,1600928376.888451,0
8.0,8.350000000000001,,,1966471.0,1600928376.9493206,0
8.0,5.737500000000001,0.338129,34.23,1962617.0,1600928377.0101902,0
8.0,1.8,,,1961915.5,1600928377.0710597,0
8.0,-3.2375,,,1962577.0,1600928377.1319294,0
8.0,-9.455,,,1962546.0,1600928377.1927989,0
8.0,-16.8125,0.338129,34.18,1962453.0,1600928377.2536685,0
8.0,-23.014999999999997,,,1964259.5,1600928377.314538,0
8.0,-35.21,,,1967420.0,1600928377.3754077,0
8.0,-43.120000000000005,,,1970835.5,1600928377.4362772,0
8.0,-28.222499999999997,,,1975625.0,1600928377.4971468,0
8.0,-3.6799999999999997,0.34069,34.18,1979287.0,1600928377.5580163,0
8.0,8.442499999999999,,,1983705.0,1600928377.6188858,0
8.0,14.455,,,1988245.0,1600928377.6797554,0
8.0,16.7275,,,1992912.0,1600928377.740625,0
8.0,18.975,0.341971,34.18,1997819.0,1600928377.8014946,0
8.0,22.1575,,,1999961.5,1600928377.862364,0
8.0,20.21,,,1995862.0,1600928377.9232337,0
8.0,16.233333333333334,,,1993401.0,1600928377.9841032,0
8.0,12.6175,0.341971,34.18,1993337.0,1600928378.044973,0
8.0,8.067499999999999,,,1994458.5,1600928378.1058424,0
8.0,3.2725000000000004,,,1996095.0,1600928378.166712,0
8.0,-2.04,,,1997399.0,1600928378.2275815,0
8.0,-6.0425,0.341971,34.21,1999179.0,1600928378.2884512,0
8.0,-13.17,,,2001910.0,1600928378.3493207,0
8.0,-22.262500000000003,,,2005374.0,1600928378.41019,0
8.0,-35.8925,,,2009361.0,1600928378.4710598,0
8.0,-48.3875,0.34069,34.21,2013250.0,1600928378.5319293,0
8.0,-34.63,,,2017021.5,1600928378.592799,0
8.0,-8.6325,,,2021068.0,1600928378.6536684,0
8.0,8.467500000000001,,,2025547.5,1600928378.714538,0
8.0,15.705,0.338129,34.21,2029880.0,1600928378.7754076,0
8.0,19.0575,,,2034751.5,1600928378.8362772,0
8.0,21.3375,,,2038966.0,1600928378.8971467,0
8.0,25.112499999999997,,,2037158.5,1600928378.9580164,0
8.0,26.622500000000002,0.33941,34.21,2032766.0,1600928379.0188859,0
8.0,21.63,,,2031568.0,1600928379.0797555,0
8.0,16.973333333333333,,,2031006.0,1600928379.140625,0
8.0,11.497499999999999,,,2031666.0,1600928379.2014945,0
8.0,5.6975,0.338129,34.21,2032319.0,1600928379.2623641,0
8.0,0.61,,,2032778.0,1600928379.3232336,0
8.0,-3.5850000000000004,,,2034441.0,1600928379.3841033,0
8.0,-11.2475,,,2036434.0,1600928379.4449728,0
8.0,-20.935000000000002,0.34069,34.21,2039460.0,1600928379.5058424,0
8.0,-31.6325,,,2042242.0,1600928379.566712,0
8.0,-47.665000000000006,,,2045254.5,1600928379.6275816,0
8.0,-42.292500000000004,,,2048240.0,1600928379.688451,0
8.0,-12.766666666666667,,,2051485.0,1600928379.7493207,0
8.0,11.364999999999998,0.341971,34.21,2055180.0,1600928379.8101902,0
8.0,20.29,,,2058689.5,1600928379.87106,0
8.0,21.192500000000003,,,2062411.0,1600928379.9319293,0
8.0,22.667500000000004,,,2063917.0,1600928379.9927988,0
8.0,26.9375,0.34069,34.21,2059248.0,1600928380.0536685,0
8.0,30.32,,,2054252.5,1600928380.114538,0
8.0,28.1325,,,2051832.0,1600928380.1754076,0
8.0,20.64,,,2050455.5,1600928380.236277,0
8.0,14.0925,0.341971,34.21,2049851.0,1600928380.2971468,0
8.0,9.986666666666666,,,2048782.5,1600928380.3580163,0
8.0,6.614999999999999,,,2048131.0,1600928380.418886,0
8.0,2.5799999999999996,,,2048230.0,1600928380.4797554,0
8.0,-7.360000000000001,0.33941,34.21,2049451.0,1600928380.540625,0
8.0,-21.0975,,,2051267.5,1600928380.6014946,0
8.0,-34.305,,,2053293.0,1600928380.6623642,0
8.0,-53.095,,,2055195.5,1600928380.7232337,0
8.0,-43.8275,0.338129,34.21,2057623.0,1600928380.7841032,0
8.0,-7.0425,,,2059853.5,1600928380.8449728,0
8.0,13.896666666666667,,,2062698.0,1600928380.9058423,0
8.0,18.96,,,2065863.5,1600928380.966712,0
8.0,19.08,0.338129,34.21,2069866.5,1600928381.0275815,0
8.0,21.932499999999997,,,2072101.0,1600928381.0884511,0
8.0,25.167499999999997,,,2065312.0,1600928381.1493206,0
8.0,26.4875,,,2057352.0,1600928381.2101903,0
8.0,23.4675,0.338129,34.21,2053377.0,1600928381.2710598,0
8.0,16.6375,,,2051117.0,1600928381.3319294,0
8.0,9.399999999999999,,,2049328.5,1600928381.392799,0
8.0,1.4750000000000003,,,2047285.0,1600928381.4536686,0
8.0,-3.6033333333333335,0.34069,34.21,2045262.0,1600928381.514538,0
8.0,-11.427499999999998,,,2044644.0,1600928381.5754075,0
8.0,-21.9475,,,2045135.0,1600928381.6362772,0
8.0,-32.065,,,2046472.0,1600928381.6971467,0
8.0,-49.4225,0.341971,34.21,2047800.5,1600928381.7580163,0
8.0,-44.57,,,2048954.0,1600928381.8188858,0
8.0,-5.942500000000001,,,2050972.0,1600928381.8797555,0
8.0,20.18,,,2052790.0,1600928381.940625,0
8.0,25.5125,0.341971,34.21,2055465.0,1600928382.0014946,0
8.0,22.72,,,2058040.0,1600928382.062364,0
8.0,21.9675,,,2061049.0,1600928382.1232338,0
8.0,25.355,,,2063744.0,1600928382.1841033,0
8.0,28.025,,,2061941.0,1600928382.244973,0
8.0,22.4325,0.343252,34.18,2051516.0,1600928382.3058424,0
8.0,12.6525,,,2043356.5,1600928382.3667119,0
8.0,4.297499999999999,,,2038198.0,1600928382.4275815,0
8.0,-4.6025,,,2036582.0,1600928382.488451,0
8.0,-15.315000000000001,0.341971,34.18,2034047.0,1600928382.5493207,0
8.0,-27.089999999999996,,,2031258.0,1600928382.6101902,0
8.0,-36.843333333333334,,,2029920.0,1600928382.6710598,0
8.0,-53.7025,,,2030114.0,1600928382.7319293,0
8.0,-55.005,0.338129,34.18,2030992.5,1600928382.792799,0
8.0,-17.14,,,2032489.0,1600928382.8536685,0
8.0,16.13,,,2034268.5,1600928382.9145381,0
8.0,25.8,,,2036137.0,1600928382.9754076,0
8.0,26.5625,0.33941,34.18,2037910.5,1600928383.036277,0
8.0,28.1475,,,2040150.0,1600928383.0971467,0
8.0,31.767500000000002,,,2042657.0,1600928383.1580162,0
8.0,30.495,,,2045562.0,1600928383.218886,0
8.0,24.5,0.338129,34.18,2047987.5,1600928383.2797554,0
8.0,15.815,,,2043226.0,1600928383.340625,0
8.0,5.5925,,,2030276.5,1600928383.4014945,0
8.0,-3.4274999999999998,,,2021455.0,1600928383.4623642,0
8.0,-13.5475,0.338129,34.18,2017473.5,1600928383.5232337,0
8.0,-25.195,,,2015609.0,1600928383.5841033,0
8.0,-39.285000000000004,,,2013381.5,1600928383.6449728,0
8.0,-55.120000000000005,,,2010014.0,1600928383.7058425,0
8.0,-34.56,0.34069,34.18,2008096.0,1600928383.766712,0
8.0,3.1,,,2007681.0,1600928383.8275814,0
8.0,23.289999999999996,,,2008524.0,1600928383.888451,0
8.0,31.322499999999998,,,2009896.0,1600928383.9493206,0
8.0,33.53,0.34069,34.18,2011827.0,1600928384.0101902,0
8.0,34.8175,,,2014321.5,1600928384.0710597,0
8.0,34.82,,,2016356.0,1600928384.1319294,0
8.0,28.267499999999995,,,2018779.0,1600928384.1927989,0
8.0,14.17,0.341971,34.18,2021692.0,1600928384.2536685,0
8.0,3.6350000000000002,,,2024230.5,1600928384.314538,0
8.0,-2.995,,,2019146.0,1600928384.3754077,0
8.0,-6.233333333333334,,,2004721.5,1600928384.4362772,0
8.0,-13.395,,,1995171.0,1600928384.4971468,0
8.0,-22.2,0.343252,34.18,1991242.0,1600928384.5580163,0
8.0,-36.822500000000005,,,1989700.0,1600928384.6188858,0
8.0,-49.8525,,,1987046.5,1600928384.6797554,0
8.0,-25.0625,,,1982901.0,1600928384.740625,0
8.0,10.46,0.34069,34.18,1980435.0,1600928384.8014946,0
8.0,26.5125,,,1979675.0,1600928384.862364,0
8.0,30.680000000000003,,,1980463.5,1600928384.9232337,0
8.0,32.016666666666666,,,1981786.0,1600928384.9841032,0
8.0,34.1425,0.33941,34.18,1983320.5,1600928385.044973,0
8.0,32.287499999999994,,,1984848.0,1600928385.1058424,0
8.0,28.119999999999997,,,1986393.5,1600928385.166712,0
8.0,19.02,,,1988539.0,1600928385.2275815,0
8.0,12.4525,0.336848,34.18,1991083.5,1600928385.2884512,0
8.0,4.68,,,1989103.0,1600928385.3493207,0
8.0,-1.8050000000000002,,,1972132.0,1600928385.41019,0
8.0,-9.7675,,,1957910.0,1600928385.4710598,0
8.0,-20.802500000000002,0.338129,34.18,1950412.5,1600928385.5319293,0
8.0,-28.963333333333335,,,1943994.0,1600928385.592799,0
8.0,-43.065,,,1939535.0,1600928385.6536684,0
8.0,-46.6425,,,1933714.0,1600928385.714538,0
8.0,-14.97,0.338129,34.18,1930242.0,1600928385.7754076,0
8.0,12.204999999999998,,,1928889.0,1600928385.8362772,0
8.0,23.115000000000002,,,1928767.0,1600928385.8971467,0
8.0,26.27,,,1929025.0,1600928385.9580164,0
8.0,27.895000000000003,0.34069,34.18,1929969.0,1600928386.0188859,0
8.0,28.4375,,,1930845.0,1600928386.0797555,0
8.0,28.77,,,1932374.0,1600928386.140625,0
8.0,24.96,,,1934906.5,1600928386.2014945,0
8.0,16.825,0.341971,34.16,1937745.0,1600928386.2623641,0
8.0,9.655000000000001,,,1928994.5,1600928386.3232336,0
8.0,1.785,,,1914562.0,1600928386.3841033,0
8.0,-5.465,,,1906603.5,1600928386.4449728,0
8.0,-12.879999999999999,0.34069,34.16,1901231.0,1600928386.5058424,0
8.0,-22.4025,,,1898361.0,1600928386.566712,0
8.0,-34.3525,,,1895437.0,1600928386.6275816,0
8.0,-42.79,,,1893073.5,1600928386.688451,0
8.0,-54.71,,,1892801.0,1600928386.7493207,0
8.0,-50.712500000000006,0.341971,34.16,1894437.5,1600928386.8101902,0
8.0,-17.18,,,1896903.0,1600928386.87106,0
8.0,8.817499999999999,,,1899653.5,1600928386.9319293,0
8.0,20.45,,,1902879.0,1600928386.9927988,0
8.0,28.2275,0.341971,34.16,1906606.5,1600928387.0536685,0
8.0,30.392500000000002,,,1910770.0,1600928387.114538,0
8.0,28.665,,,1915822.5,1600928387.1754076,0
8.0,26.105,,,1920183.0,1600928387.236277,0
8.0,20.52,0.338129,34.18,1914323.0,1600928387.2971468,0
8.0,15.396666666666668,,,1908038.0,1600928387.3580163,0
8.0,10.237499999999999,,,1905434.0,1600928387.418886,0
8.0,2.5775,,,1904979.5,1600928387.4797554,0
8.0,-2.225,0.338129,34.18,1905359.0,1600928387.540625,0
8.0,-8.469999999999999,,,1905798.0,1600928387.6014946,0
8.0,-15.43,,,1906882.0,1600928387.6623642,0
8.0,-23.055,,,1910076.0,1600928387.7232337,0
8.0,-31.872500000000002,0.338129,34.18,1913967.0,1600928387.7841032,0
8.0,-40.822500000000005,,,1918203.5,1600928387.8449728,0
8.0,-53.43333333333333,,,1922634.0,1600928387.9058423,0
8.0,-52.395,,,1927294.0,1600928387.966712,0
8.0,-24.165,0.336848,34.18,1932186.0,1600928388.0275815,0
8.0,-1.3675000000000002,,,1937558.0,1600928388.0884511,0
8.0,8.965,,,1943193.0,1600928388.1493206,0
8.0,16.8875,,,1948974.0,1600928388.2101903,0
8.0,22.1925,0.33941,34.16,1953087.0,1600928388.2710598,0
8.0,25.7025,,,1949204.5,1600928388.3319294,0
8.0,26.197499999999998,,,1946315.0,1600928388.392799,0
8.0,23.1,,,1946252.0,1600928388.4536686,0
8.0,17.726666666666663,0.343252,34.16,1947313.0,1600928388.514538,0
8.0,12.6525,,,1949233.0,1600928388.5754075,0
8.0,7.0775,,,1950631.0,1600928388.6362772,0
8.0,3.3425000000000002,,,1953030.5,1600928388.6971467,0
8.0,-4.2725,0.34069,34.16,1956538.0,1600928388.7580163,0
8.0,-11.8575,,,1960556.0,1600928388.8188858,0
8.0,-19.905,,,1964808.0,1600928388.8797555,0
8.0,-31.3075,,,1969553.0,1600928388.940625,0
8.0,-41.125,0.341971,34.16,1975860.5,1600928389.0014946,0
8.0,-53.379999999999995,,,1980916.0,1600928389.062364,0
8.0,-52.285,,,1986186.0,1600928389.1232338,0
8.0,-22.182500000000005,,,1991333.0,1600928389.1841033,0
8.0,3.2299999999999995,,,1996760.5,1600928389.244973,0
8.0,14.24,0.34069,34.18,2002481.0,1600928389.3058424,0
8.0,20.29,,,2003928.5,1600928389.3667119,0
8.0,23.625,,,2000443.0,1600928389.4275815,0
8.0,27.73,,,1998555.0,1600928389.488451,0
8.0,29.645,0.338129,34.18,1998034.0,1600928389.5493207,0
8.0,25.495,,,1998316.5,1600928389.6101902,0
8.0,21.51666666666667,,,1999305.0,1600928389.6710598,0
8.0,17.11,,,2000456.0,1600928389.7319293,0
8.0,10.82,0.338129,34.18,2002225.0,1600928389.792799,0
8.0,5.47,,,2005013.0,1600928389.8536685,0
8.0,-3.0324999999999998,,,2010881.0,1600928389.9145381,0
8.0,-11.0975,,,2014502.5,1600928389.9754076,0
8.0,-21.8475,0.338129,34.18,2017933.0,1600928390.036277,0
8.0,-31.485,,,2021856.0,1600928390.0971467,0
8.0,-46.9925,,,2026211.0,1600928390.1580162,0
8.0,-57.682500000000005,,,2030621.0,1600928390.218886,0
8.0,-36.14666666666667,0.338129,34.16,2034845.0,1600928390.2797554,0
8.0,-5.9675,,,2039303.0,1600928390.340625,0
8.0,9.6475,,,2043980.0,1600928390.4014945,0
8.0,19.415,,,2047696.0,1600928390.4623642,0
8.0,26.7875,0.34069,34.16,2046172.0,1600928390.5232337,0
8.0,28.865000000000002,,,2041955.0,1600928390.5841033,0
8.0,30.195,,,2039904.0,1600928390.6449728,0
8.0,29.6325,,,2038846.0,1600928390.7058425,0
8.0,22.2225,0.34069,34.16,2038478.0,1600928390.766712,0
8.0,17.44,,,2038125.0,1600928390.8275814,0
8.0,11.115,,,2038599.0,1600928390.888451,0
8.0,4.4350000000000005,,,2039702.0,1600928390.9493206,0
8.0,-2.11,0.341971,34.16,2041400.0,1600928391.0101902,0
8.0,-8.3425,,,2043354.0,1600928391.0710597,0
8.0,-16.45,,,2045755.0,1600928391.1319294,0
8.0,-27.4425,,,2048298.0,1600928391.1927989,0
8.0,-35.644999999999996,0.341971,34.16,2050801.5,1600928391.2536685,0
8.0,-52.004999999999995,,,2053750.0,1600928391.314538,0
8.0,-49.7475,,,2056973.0,1600928391.3754077,0
8.0,-15.763333333333334,,,2060064.0,1600928391.4362772,0
8.0,9.2,,,2063425.5,1600928391.4971468,0
8.0,20.48,0.338129,34.16,2066668.0,1600928391.5580163,0
8.0,26.317500000000003,,,2069364.0,1600928391.6188858,0
8.0,29.2275,,,2066348.0,1600928391.6797554,0
8.0,30.685000000000002,,,2060497.5,1600928391.740625,0
8.0,33.3925,0.338129,34.16,2056905.0,1600928391.8014946,0
8.0,28.305,,,2054826.0,1600928391.862364,0
8.0,20.232499999999998,,,2053625.0,1600928391.9232337,0
8.0,14.62,,,2052259.0,1600928391.9841032,0
8.0,8.635,0.34069,34.16,2050718.0,1600928392.044973,0
8.0,3.2299999999999995,,,2050682.0,1600928392.1058424,0
8.0,-1.79,,,2051144.0,1600928392.166712,0
8.0,-9.415,,,2052528.5,1600928392.2275815,0
8.0,-19.3125,0.33941,34.16,2054316.5,1600928392.2884512,0
8.0,-27.2925,,,2055790.0,1600928392.3493207,0
8.0,-39.2675,,,2057712.0,1600928392.41019,0
8.0,-50.199999999999996,,,2059778.0,1600928392.4710598,0
8.0,-22.89,0.338129,34.16,2062212.5,1600928392.5319293,0
8.0,10.15,,,2064878.0,1600928392.592799,0
8.0,24.317500000000003,,,2067547.5,1600928392.6536684,0
8.0,27.8925,,,2070358.0,1600928392.714538,0
8.0,29.6125,0.34069,34.16,2068274.0,1600928392.7754076,0
8.0,31.61,,,2059129.0,1600928392.8362772,0
8.0,32.2325,,,2051474.0,1600928392.8971467,0
8.0,30.527500000000003,,,2046407.0,1600928392.9580164,0
8.0,24.214999999999996,0.34069,34.16,2042576.5,1600928393.0188859,0
8.0,15.5025,,,2039844.0,1600928393.0797555,0
8.0,8.383333333333333,,,2036479.5,1600928393.140625,0
8.0,0.6174999999999997,,,2034201.0,1600928393.2014945,0
8.0,-7.185,0.34069,34.15,2033339.0,1600928393.2623641,0
8.0,-14.775000000000002,,,2033441.0,1600928393.3232336,0
8.0,-23.1625,,,2034458.5,1600928393.3841033,0
8.0,-29.8175,,,2035338.0,1600928393.4449728,0
8.0,-38.9525,0.33941,34.15,2036484.0,1600928393.5058424,0
8.0,-39.197500000000005,,,2037939.0,1600928393.566712,0
8.0,-13.117500000000001,,,2040021.5,1600928393.6275816,0
8.0,9.655000000000001,,,2042355.0,1600928393.688451,0
8.0,15.709999999999999,,,2045161.5,1600928393.7493207,0
8.0,13.6775,0.338129,34.15,2048960.0,1600928393.8101902,0
8.0,12.455,,,2050803.0,1600928393.87106,0
8.0,15.625,,,2041858.5,1600928393.9319293,0
8.0,20.167500000000004,,,2030304.0,1600928393.9927988,0
8.0,19.285,0.34069,34.15,2023624.0,1600928394.0536685,0
8.0,14.065000000000001,,,2018533.0,1600928394.114538,0
8.0,9.2225,,,2015427.5,1600928394.1754076,0
8.0,2.6725000000000003,,,2012180.0,1600928394.236277,0
8.0,-3.6775,0.338129,34.15,2008959.0,1600928394.2971468,0
8.0,-11.229999999999999,,,2007267.0,1600928394.3580163,0
8.0,-17.805,,,2007272.5,1600928394.418886,0
8.0,-25.785,,,2007673.0,1600928394.4797554,0
8.0,-40.2325,0.338129,34.15,2008898.0,1600928394.540625,0
8.0,-39.0925,,,2010228.0,1600928394.6014946,0
8.0,-10.692499999999997,,,2011946.5,1600928394.6623642,0
8.0,10.6575,,,2014053.0,1600928394.7232337,0
8.0,17.2075,0.341971,34.15,2016642.0,1600928394.7841032,0
8.0,18.3375,,,2019431.0,1600928394.8449728,0
8.0,19.603333333333335,,,2022661.0,1600928394.9058423,0
8.0,20.432499999999997,,,2026104.0,1600928394.966712,0
8.0,18.884999999999998,0.341971,34.15,2025894.5,1600928395.0275815,0
8.0,15.485000000000001,,,2015624.0,1600928395.0884511,0
8.0,8.695,,,2006767.0,1600928395.1493206,0
8.0,2.7925,,,2001779.0,1600928395.2101903,0
8.0,-4.047499999999999,0.341971,34.15,1999603.5,1600928395.2710598,0
8.0,-8.49,,,1997977.0,1600928395.3319294,0
8.0,-15.07,,,1995944.5,1600928395.392799,0
8.0,-24.765,,,1994192.0,1600928395.4536686,0
8.0,-33.949999999999996,0.34069,34.15,1994188.5,1600928395.514538,0
8.0,-45.55,,,1995722.0,1600928395.5754075,0
8.0,-38.292500000000004,,,1997642.0,1600928395.6362772,0
8.0,-9.5475,,,2000139.5,1600928395.6971467,0
8.0,9.335,0.338129,34.15,2002647.0,1600928395.7580163,0
8.0,19.3875,,,2005537.5,1600928395.8188858,0
8.0,25.8575,,,2008805.0,1600928395.8797555,0
8.0,31.89,,,2012326.5,1600928395.940625,0
8.0,31.955000000000002,0.338129,34.15,2016389.0,1600928396.0014946,0
8.0,29.076666666666668,,,2020124.5,1600928396.062364,0
8.0,25.5375,,,2017738.0,1600928396.1232338,0
8.0,19.5925,,,2009865.0,1600928396.1841033,0
8.0,11.5625,,,2005171.0,1600928396.244973,0
8.0,3.0525,0.33941,34.16,2004136.0,1600928396.3058424,0
8.0,-5.449999999999999,,,2004715.0,1600928396.3667119,0
8.0,-14.2575,,,2004784.0,1600928396.4275815,0
8.0,-23.63,,,2004174.0,1600928396.488451,0
8.0,-29.7075,0.338129,34.16,2004706.0,1600928396.5493207,0
8.0,-39.682500000000005,,,2006143.0,1600928396.6101902,0
8.0,-40.586666666666666,,,2008839.5,1600928396.6710598,0
8.0,-20.4125,,,2011941.0,1600928396.7319293,0
8.0,0.1625000000000001,0.33941,34.16,2014748.5,1600928396.792799,0
8.0,8.0375,,,2017717.0,1600928396.8536685,0
8.0,12.24,,,2021178.0,1600928396.9145381,0
8.0,15.305,,,2025038.0,1600928396.9754076,0
8.0,18.200000000000003,0.341971,34.16,2028655.0,1600928397.036277,0
8.0,22.942500000000003,,,,1600928397.0971467,0
8.0,22.542500000000004,,,2032839.5,1600928397.1580162,0
8.0,19.64,,,2028927.0,1600928397.218886,0
8.0,14.74,0.344533,34.15,2021940.0,1600928397.2797554,0
8.0,8.86,,,2018707.0,1600928397.340625,0
8.0,4.82,,,2017398.0,1600928397.4014945,0
8.0,-2.275,,,2017150.0,1600928397.4623642,0
8.0,-14.3725,0.341971,34.15,2016769.5,1600928397.5232337,0
8.0,-23.8975,,,2015645.0,1600928397.5841033,0
8.0,-30.5325,,,2016375.0,1600928397.6449728,0
8.0,-41.527499999999996,,,2017862.0,1600928397.7058425,0
8.0,-37.0725,0.33941,34.15,2019883.0,1600928397.766712,0
8.0,-13.936666666666667,,,2022360.0,1600928397.8275814,0
8.0,2.5025,,,2024725.5,1600928397.888451,0
8.0,10.73,,,2028550.5,1600928397.9493206,0
8.0,14.7625,0.338129,34.15,2031337.0,1600928398.0101902,0
8.0,16.7575,,,2034619.5,1600928398.0710597,0
8.0,19.770000000000003,,,2038511.0,1600928398.1319294,0
8.0,22.055000000000003,,,2039210.5,1600928398.1927989,0
8.0,17.17,0.338129,34.15,2032079.0,1600928398.2536685,0
8.0,12.8625,,,2025654.0,1600928398.314538,0
8.0,8.575,,,2022578.0,1600928398.3754077,0
8.0,5.173333333333334,,,2020463.5,1600928398.4362772,0
8.0,1.1825,,,2019362.0,1600928398.4971468,0
8.0,-3.675,0.338129,34.15,2018426.5,1600928398.5580163,0
8.0,-10.4675,,,2017762.0,1600928398.6188858,0
8.0,-18.0675,,,2018391.5,1600928398.6797554,0
8.0,-26.36,,,2020157.0,1600928398.740625,0
8.0,-36.18,0.338129,34.15,2021732.0,1600928398.8014946,0
8.0,-24.5875,,,2024032.0,1600928398.862364,0
8.0,1.09,,,2026186.5,1600928398.9232337,0
8.0,11.540000000000001,,,2028856.0,1600928398.9841032,0
8.0,14.7725,0.33941,34.15,2031680.0,1600928399.044973,0
8.0,16.232499999999998,,,2034951.0,1600928399.1058424,0
8.0,18.0,,,2038557.0,1600928399.166712,0
8.0,19.1925,,,2042405.0,1600928399.2275815,0
8.0,20.4225,0.34069,34.15,2040819.0,1600928399.2884512,0
8.0,17.2125,,,2033894.0,1600928399.3493207,0
8.0,13.395,,,2029787.5,1600928399.41019,0
8.0,10.935,,,2027412.0,1600928399.4710598,0
8.0,7.0225,0.34069,34.15,2026084.5,1600928399.5319293,0
8.0,0.7266666666666666,,,2025537.0,1600928399.592799,0
8.0,-7.5375,,,2024714.0,1600928399.6536684,0
8.0,-16.560000000000002,,,2025141.5,1600928399.714538,0
8.0,-24.405,0.34069,34.15,2026565.0,1600928399.7754076,0
8.0,-35.995,,,2028619.5,1600928399.8362772,0
8.0,-47.7475,,,2030417.0,1600928399.8971467,0
8.0,-31.835,,,2032954.0,1600928399.9580164,0
8.0,-5.5325,0.338129,34.15,2035223.0,1600928400.0188859,0
8.0,6.4475,,,2037939.5,1600928400.0797555,0
8.0,13.043333333333335,,,2041127.0,1600928400.140625,0
8.0,18.92,,,2044588.0,1600928400.2014945,0
8.0,20.222500000000004,0.338129,34.15,2048154.0,1600928400.2623641,0
8.0,21.515,,,2051126.0,1600928400.3232336,0
8.0,21.84,,,2048792.0,1600928400.3841033,0
8.0,18.73,,,2043188.5,1600928400.4449728,0
8.0,13.702499999999999,0.336848,34.15,2040259.0,1600928400.5058424,0
8.0,9.845,,,2039262.0,1600928400.566712,0
8.0,5.0475,,,2038995.0,1600928400.6275816,0
8.0,-1.9675,,,2038118.0,1600928400.688451,0
8.0,-8.603333333333333,,,2037354.0,1600928400.7493207,0
8.0,-15.91,0.336848,34.15,2037857.0,1600928400.8101902,0
8.0,-24.39,,,2039547.0,1600928400.87106,0
8.0,-33.855,,,2041313.0,1600928400.9319293,0
8.0,-45.870000000000005,,,2043343.0,1600928400.9927988,0
8.0,-33.8925,0.34069,34.15,2045413.5,1600928401.0536685,0
8.0,-8.6425,,,2047641.0,1600928401.114538,0
8.0,5.1625,,,2050544.0,1600928401.1754076,0
8.0,12.707500000000001,,,2053474.0,1600928401.236277,0
8.0,17.384999999999998,0.33941,34.15,2056159.0,1600928401.2971468,0
8.0,19.593333333333334,,,2060427.5,1600928401.3580163,0
8.0,19.905,,,2061559.0,1600928401.418886,0
8.0,20.515,,,2055885.0,1600928401.4797554,0
8.0,18.775,0.34069,34.15,2050756.0,1600928401.540625,0
8.0,15.84,,,2048465.5,1600928401.6014946,0
8.0,11.065,,,2047210.0,1600928401.6623642,0
8.0,6.84,,,2046694.0,1600928401.7232337,0
8.0,3.5949999999999998,0.33941,34.15,2045664.0,1600928401.7841032,0
8.0,-1.6825,,,2045152.5,1600928401.8449728,0
8.0,-12.40333333333333,,,2045880.0,1600928401.9058423,0
8.0,-20.707500000000003,,,2047272.0,1600928401.966712,0
8.0,-33.89,0.341971,34.15,2048929.0,1600928402.0275815,0
8.0,-53.3725,,,2051010.0,1600928402.0884511,0
8.0,-40.6975,,,2053141.0,1600928402.1493206,0
8.0,-6.285,,,2055267.5,1600928402.2101903,0
8.0,9.2,0.341971,34.13,2057756.0,1600928402.2710598,0
8.0,15.537500000000001,,,2060437.5,1600928402.3319294,0
8.0,19.4075,,,2063488.0,1600928402.392799,0
8.0,23.832499999999996,,,2066680.0,1600928402.4536686,0
8.0,27.603333333333335,0.338129,34.13,2067985.0,1600928402.514538,0
8.0,28.4275,,,2061255.5,1600928402.5754075,0
8.0,23.04,,,2053894.0,1600928402.6362772,0
8.0,16.69,,,2050171.0,1600928402.6971467,0
8.0,12.02,0.34069,34.13,2047104.0,1600928402.7580163,0
8.0,4.625,,,2045120.0,1600928402.8188858,0
8.0,-2.0149999999999997,,,2043404.0,1600928402.8797555,0
8.0,-9.925,,,2041993.5,1600928402.940625,0
8.0,-18.9625,0.338129,34.13,2041710.0,1600928403.0014946,0
8.0,-26.539999999999996,,,2042322.0,1600928403.062364,0
8.0,-37.65,,,2044177.5,1600928403.1232338,0
8.0,-35.760000000000005,,,2045295.0,1600928403.1841033,0
8.0,-4.8975,,,2047188.0,1600928403.244973,0
8.0,18.252499999999998,0.341971,34.15,2049168.0,1600928403.3058424,0
8.0,24.4075,,,2051611.0,1600928403.3667119,0
8.0,25.419999999999998,,,2054164.0,1600928403.4275815,0
8.0,26.4725,,,2057147.5,1600928403.488451,0
8.0,27.6775,0.33941,34.15,2059968.0,1600928403.5493207,0
8.0,28.997500000000002,,,2059919.0,1600928403.6101902,0
8.0,25.33,,,2052048.0,1600928403.6710598,0
8.0,17.875,,,2044097.0,1600928403.7319293,0
8.0,7.0475,0.341971,34.15,2039392.0,1600928403.792799,0
8.0,-0.5874999999999999,,,2036249.5,1600928403.8536685,0
8.0,-5.52,,,2033441.0,1600928403.9145381,0
8.0,-14.115,,,2031149.0,1600928403.9754076,0
8.0,-24.1275,0.34069,34.15,2028969.0,1600928404.036277,0
8.0,-33.7275,,,2028269.5,1600928404.0971467,0
8.0,-45.8425,,,2028746.0,1600928404.1580162,0
8.0,-32.07,,,2029703.0,1600928404.218886,0
8.0,-2.7600000000000002,0.341971,34.13,2030852.0,1600928404.2797554,0
8.0,16.002499999999998,,,2032424.0,1600928404.340625,0
8.0,22.904999999999998,,,2034368.0,1600928404.4014945,0
8.0,22.8375,,,2036666.5,1600928404.4623642,0
8.0,22.535,0.34069,34.13,2039194.0,1600928404.5232337,0
8.0,22.612500000000004,,,2041965.0,1600928404.5841033,0
8.0,19.15,,,2045078.0,1600928404.6449728,0
8.0,14.435,,,2046498.0,1600928404.7058425,0
8.0,8.8275,0.338129,34.13,2035739.5,1600928404.766712,0
8.0,3.72,,,2027035.0,1600928404.8275814,0
8.0,-1.38,,,2022607.5,1600928404.888451,0
8.0,-5.8475,,,2019531.0,1600928404.9493206,0
8.0,-13.879999999999999,0.33941,34.13,2017742.5,1600928405.0101902,0
8.0,-21.415,,,2014934.0,1600928405.0710597,0
8.0,-33.177499999999995,,,2013126.5,1600928405.1319294,0
8.0,-43.565000000000005,,,2012519.0,1600928405.1927989,0
8.0,-25.464999999999996,0.33941,34.15,2013020.5,1600928405.2536685,0
8.0,4.109999999999999,,,2014364.0,1600928405.314538,0
8.0,16.225,,,2015727.0,1600928405.3754077,0
8.0,18.833333333333332,,,2017377.0,1600928405.4362772,0
8.0,18.927500000000002,,,2019526.0,1600928405.4971468,0
8.0,18.16,0.338129,34.15,2021774.0,1600928405.5580163,0
8.0,19.1925,,,2024643.0,1600928405.6188858,0
8.0,17.1375,,,2027720.0,1600928405.6797554,0
8.0,12.160000000000002,,,2030358.0,1600928405.740625,0
8.0,6.835,0.33941,34.15,2026163.0,1600928405.8014946,0
8.0,-0.6975,,,2016250.5,1600928405.862364,0
8.0,-6.37,,,2010548.0,1600928405.9232337,0
8.0,-13.656666666666666,,,2008275.5,1600928405.9841032,0
8.0,-21.29,0.34069,34.15,2007567.0,1600928406.044973,0
8.0,-27.0525,,,2006528.0,1600928406.1058424,0
8.0,-37.775,,,2004849.0,1600928406.166712,0
8.0,-37.905,,,2004573.0,1600928406.2275815,0
8.0,-10.5025,0.341971,34.13,2005815.0,1600928406.2884512,0
8.0,11.625,,,2008103.5,1600928406.3493207,0
8.0,16.82,,,2011722.5,1600928406.41019,0
8.0,16.972500000000004,,,2014336.0,1600928406.4710598,0
8.0,16.86,0.341971,34.13,2017504.0,1600928406.5319293,0
8.0,18.186666666666667,,,2020696.0,1600928406.592799,0
8.0,19.845,,,2024558.0,1600928406.6536684,0
8.0,14.857500000000002,,,2028484.0,1600928406.714538,0
8.0,8.57,0.34069,34.13,2031269.5,1600928406.7754076,0
8.0,2.4624999999999995,,,2025839.0,1600928406.8362772,0
8.0,-4.262499999999999,,,2016930.0,1600928406.8971467,0
8.0,-11.3375,,,2012302.0,1600928406.9580164,0
8.0,-18.229999999999997,0.338129,34.13,2010926.5,1600928407.0188859,0
8.0,-28.060000000000002,,,2010833.0,1600928407.0797555,0
8.0,-39.833333333333336,,,2010417.5,1600928407.140625,0
8.0,-32.56250000000001,,,2009456.0,1600928407.2014945,0
8.0,-3.615,0.338129,34.13,2009978.0,1600928407.2623641,0
8.0,15.51,,,2012255.5,1600928407.3232336,0
8.0,18.8825,,,2014955.0,1600928407.3841033,0
8.0,16.325000000000003,,,2017636.5,1600928407.4449728,0
8.0,16.165,0.338129,34.13,2020709.0,1600928407.5058424,0
8.0,18.815,,,2023784.0,1600928407.566712,0
8.0,18.9175,,,2027018.0,1600928407.6275816,0
8.0,13.715,,,2030561.0,1600928407.688451,0
8.0,7.8500000000000005,,,2034289.0,1600928407.7493207,0
8.0,3.465,0.34069,34.13,2034953.5,1600928407.8101902,0
8.0,-3.5425,,,2026831.0,1600928407.87106,0
8.0,-13.945,,,2020092.5,1600928407.9319293,0
8.0,-22.907500000000002,,,2017341.0,1600928407.9927988,0
8.0,-35.3625,0.341971,34.13,2016300.0,1600928408.0536685,0
8.0,-43.0,,,2016132.0,1600928408.114538,0
8.0,-18.145,,,2015302.5,1600928408.1754076,0
8.0,9.6275,,,2014651.0,1600928408.236277,0
8.0,20.485,0.341971,34.13,2015376.5,1600928408.2971468,0
8.0,22.61,,,2017236.0,1600928408.3580163,0
8.0,21.085,,,2019082.5,1600928408.418886,0
8.0,21.060000000000002,,,2021499.0,1600928408.4797554,0
8.0,22.215,0.341971,34.13,2024263.5,1600928408.540625,0
8.0,19.5,,,2027113.0,1600928408.6014946,0
8.0,14.17,,,2030060.5,1600928408.6623642,0
8.0,5.56,,,2034653.5,1600928408.7232337,0
8.0,-4.0375000000000005,0.341971,34.13,2037693.0,1600928408.7841032,0
8.0,-10.0,,,2031511.5,1600928408.8449728,0
8.0,-12.436666666666667,,,2022262.0,1600928408.9058423,0
8.0,-16.427500000000002,,,2018048.5,1600928408.966712,0
8.0,-29.465000000000003,0.341971,34.13,2016082.0,1600928409.0275815,0
8.0,-34.79,,,2016349.0,1600928409.0884511,0
8.0,-8.315,,,2015519.0,1600928409.1493206,0
8.0,12.392500000000002,,,2014237.5,1600928409.2101903,0
8.0,15.2625,0.34069,34.11,2013747.0,1600928409.2710598,0
8.0,16.494999999999997,,,2015118.5,1600928409.3319294,0
8.0,17.2275,,,2017109.0,1600928409.392799,0
8.0,17.985,,,2019376.5,1600928409.4536686,0
8.0,17.95,0.338129,34.11,2021869.0,1600928409.514538,0
8.0,14.67,,,2024427.5,1600928409.5754075,0
8.0,9.665000000000001,,,2028305.0,1600928409.6362772,0
8.0,2.7399999999999998,,,2031605.0,1600928409.6971467,0
8.0,-5.2575,0.338129,34.11,2031569.5,1600928409.7580163,0
8.0,-11.03,,,2022872.0,1600928409.8188858,0
8.0,-16.877499999999998,,,2015005.0,1600928409.8797555,0
8.0,-24.7475,,,2011822.0,1600928409.940625,0
8.0,-37.370000000000005,0.338129,34.11,2011077.5,1600928410.0014946,0
8.0,-33.78333333333334,,,2011072.0,1600928410.062364,0
8.0,-8.48,,,2009833.5,1600928410.1232338,0
8.0,13.0175,,,2009020.0,1600928410.1841033,0
8.0,19.43,,,2009619.5,1600928410.244973,0
8.0,17.125,0.336848,34.13,2011374.0,1600928410.3058424,0
8.0,17.6675,,,2014064.5,1600928410.3667119,0
8.0,19.8725,,,2016930.0,1600928410.4275815,0
8.0,20.247500000000002,,,2019471.5,1600928410.488451,0
8.0,16.285,0.34069,34.13,2022348.0,1600928410.5493207,0
8.0,10.4725,,,2025653.5,1600928410.6101902,0
8.0,1.6900000000000002,,,2029412.0,1600928410.6710598,0
8.0,-4.025,,,2027520.5,1600928410.7319293,0
8.0,-11.075000000000001,0.341971,34.13,2017126.0,1600928410.792799,0
8.0,-20.0425,,,2010003.0,1600928410.8536685,0
8.0,-28.299999999999997,,,2006559.0,1600928410.9145381,0
8.0,-39.265,,,2005497.0,1600928410.9754076,0
8.0,-30.6925,0.34069,34.13,2004663.0,1600928411.036277,0
8.0,-2.1599999999999997,,,2003563.0,1600928411.0971467,0
8.0,13.704999999999998,,,2002536.0,1600928411.1580162,0
8.0,17.5925,,,2003175.5,1600928411.218886,0
8.0,19.506666666666668,0.341971,34.13,2005831.0,1600928411.2797554,0
8.0,20.86,,,2008038.0,1600928411.340625,0
8.0,20.91,,,2010933.5,1600928411.4014945,0
8.0,22.427500000000002,,,2013593.0,1600928411.4623642,0
8.0,18.494999999999997,0.341971,34.13,2016649.0,1600928411.5232337,0
8.0,11.419999999999998,,,2019697.0,1600928411.5841033,0
8.0,3.18,,,2022628.5,1600928411.6449728,0
8.0,-3.385,,,2017832.0,1600928411.7058425,0
8.0,-11.177499999999998,0.341971,34.13,2008420.0,1600928411.766712,0
8.0,-18.16333333333333,,,2002885.0,1600928411.8275814,0
8.0,-23.53,,,2000869.5,1600928411.888451,0
8.0,-36.415,,,2000521.0,1600928411.9493206,0
8.0,-40.365,0.338129,34.13,1999551.0,1600928412.0101902,0
8.0,-14.957500000000001,,,1998311.0,1600928412.0710597,0
8.0,9.005,,,1998518.0,1600928412.1319294,0
8.0,15.862499999999999,,,1999661.0,1600928412.1927989,0
8.0,16.145000000000003,0.338129,34.11,2001938.5,1600928412.2536685,0
8.0,17.0775,,,2004314.0,1600928412.314538,0
8.0,16.805,,,2007143.0,1600928412.3754077,0
8.0,17.883333333333336,,,2010192.0,1600928412.4362772,0
8.0,15.572500000000002,,,2013077.0,1600928412.4971468,0
8.0,9.65,0.338129,34.11,2016725.0,1600928412.5580163,0
8.0,1.5375,,,2019655.0,1600928412.6188858,0
8.0,-5.335,,,2016268.0,1600928412.6797554,0
8.0,-12.5625,,,2007643.0,1600928412.740625,0
8.0,-21.355,0.338129,34.11,2003051.0,1600928412.8014946,0
8.0,-29.955,,,2001721.0,1600928412.862364,0
8.0,-42.86,,,2002342.0,1600928412.9232337,0
8.0,-34.22,,,2001728.0,1600928412.9841032,0
8.0,-6.775,0.34069,34.11,2001246.5,1600928413.044973,0
8.0,15.015,,,2002026.0,1600928413.1058424,0
8.0,19.455,,,2003745.5,1600928413.166712,0
8.0,19.169999999999998,,,2006449.0,1600928413.2275815,0
8.0,17.1025,0.341971,34.11,2009335.5,1600928413.2884512,0
8.0,18.1025,,,2012315.0,1600928413.3493207,0
8.0,17.7475,,,2015178.5,1600928413.41019,0
8.0,13.1725,,,2018816.0,1600928413.4710598,0
8.0,6.1425,0.341971,34.11,2022232.0,1600928413.5319293,0
8.0,0.11999999999999988,,,2025263.0,1600928413.592799,0
8.0,-7.69,,,2017986.5,1600928413.6536684,0
8.0,-15.8625,,,2009004.0,1600928413.714538,0
8.0,-24.5175,0.341971,34.11,2004862.5,1600928413.7754076,0
8.0,-36.61,,,2003098.0,1600928413.8362772,0
8.0,-26.375,,,2003162.0,1600928413.8971467,0
8.0,6.3975,,,2002199.0,1600928413.9580164,0
8.0,26.9225,0.341971,34.11,2001444.5,1600928414.0188859,0
8.0,29.27,,,2001725.0,1600928414.0797555,0
8.0,26.78,,,2003251.5,1600928414.140625,0
8.0,24.689999999999998,,,2006401.5,1600928414.2014945,0
8.0,22.1175,0.33941,34.11,2009075.0,1600928414.2623641,0
8.0,20.692500000000003,,,2012243.0,1600928414.3232336,0
8.0,13.4475,,,2015251.0,1600928414.3841033,0
8.0,2.4625,,,2018455.5,1600928414.4449728,0
8.0,-5.5675,0.33941,34.11,2022003.0,1600928414.5058424,0
8.0,-11.175,,,2024904.0,1600928414.566712,0
8.0,-15.9575,,,2019320.0,1600928414.6275816,0
8.0,-27.28,,,2008163.5,1600928414.688451,0
8.0,-31.959999999999997,,,2001955.0,1600928414.7493207,0
8.0,-10.67,0.338129,34.11,1999282.0,1600928414.8101902,0
8.0,16.362499999999997,,,1998274.0,1600928414.87106,0
8.0,24.055,,,1997261.5,1600928414.9319293,0
8.0,21.46,,,1995518.0,1600928414.9927988,0
8.0,14.625,0.34069,34.11,1995451.5,1600928415.0536685,0
8.0,11.915000000000001,,,1996316.0,1600928415.114538,0
8.0,12.4725,,,1998601.5,1600928415.1754076,0
8.0,7.9325,,,2001363.0,1600928415.236277,0
8.0,-0.8225,0.343252,34.11,2004273.0,1600928415.2971468,0
8.0,-7.890000000000001,,,2007302.0,1600928415.3580163,0
8.0,-16.497500000000002,,,2010481.5,1600928415.418886,0
8.0,-21.884999999999998,,,2014157.0,1600928415.4797554,0
8.0,-32.167500000000004,0.343252,34.11,2016455.0,1600928415.540625,0
8.0,-36.185,,,2009122.0,1600928415.6014946,0
8.0,-13.21,,,1997902.5,1600928415.6623642,0
8.0,10.405,,,1990819.0,1600928415.7232337,0
8.0,16.985,0.343252,34.11,1989455.0,1600928415.7841032,0
8.0,15.225,,,1989404.0,1600928415.8449728,0
8.0,13.719999999999999,,,1988322.0,1600928415.9058423,0
8.0,13.360000000000001,,,1987245.0,1600928415.966712,0
8.0,13.9075,0.343252,34.11,1987649.0,1600928416.0275815,0
8.0,12.465,,,1989860.0,1600928416.0884511,0
8.0,5.51,,,1992464.0,1600928416.1493206,0
8.0,-2.105,,,1995555.5,1600928416.2101903,0
8.0,-9.55,0.341971,34.09,1999124.0,1600928416.2710598,0
8.0,-17.490000000000002,,,2002490.0,1600928416.3319294,0
8.0,-30.6675,,,2006042.0,1600928416.392799,0
8.0,-33.0375,,,2007541.0,1600928416.4536686,0
8.0,-13.15,0.33941,34.09,1998454.0,1600928416.514538,0
8.0,6.475,,,1987824.0,1600928416.5754075,0
8.0,15.09,,,1982535.0,1600928416.6362772,0
8.0,15.3325,,,1981449.0,1600928416.6971467,0
8.0,14.36,0.33941,34.09,1981980.0,1600928416.7580163,0
8.0,12.567499999999999,,,1981202.5,1600928416.8188858,0
8.0,11.3275,,,1979881.0,1600928416.8797555,0
8.0,7.255,,,1980372.5,1600928416.940625,0
8.0,1.8475000000000001,0.338129,34.09,1981711.0,1600928417.0014946,0
8.0,-1.9366666666666668,,,1984371.5,1600928417.062364,0
8.0,-8.2625,,,1988523.0,1600928417.1232338,0
8.0,-15.6175,,,1991674.0,1600928417.1841033,0
8.0,-25.7425,,,1995322.5,1600928417.244973,0
8.0,-36.222500000000004,0.338129,34.11,1998926.0,1600928417.3058424,0
8.0,-21.2425,,,1994523.0,1600928417.3667119,0
8.0,1.3775,,,1983453.0,1600928417.4275815,0
8.0,12.7225,,,1977116.0,1600928417.488451,0
8.0,15.504999999999999,0.338129,34.11,1975368.0,1600928417.5493207,0
8.0,15.145,,,1976424.5,1600928417.6101902,0
8.0,13.983333333333334,,,1977530.0,1600928417.6710598,0
8.0,13.9375,,,1976926.0,1600928417.7319293,0
8.0,12.9925,0.34069,34.11,1976733.0,1600928417.792799,0
8.0,7.22,,,1978773.5,1600928417.8536685,0
8.0,2.295,,,1981902.0,1600928417.9145381,0
8.0,-6.705,,,1985693.5,1600928417.9754076,0
8.0,-16.325,0.357341,34.11,1989569.0,1600928418.036277,0
8.0,-23.5475,,,1993336.5,1600928418.0971467,0
8.0,-34.754999999999995,,,1997560.0,1600928418.1580162,0
8.0,-29.315,,,1995456.5,1600928418.218886,0
8.0,-6.62,0.33941,34.09,1985573.0,1600928418.2797554,0
8.0,9.477500000000001,,,1979298.0,1600928418.340625,0
8.0,14.32,,,1977264.0,1600928418.4014945,0
8.0,13.3325,,,1978755.0,1600928418.4623642,0
8.0,12.2075,0.34069,34.09,1980144.0,1600928418.5232337,0
8.0,12.254999999999999,,,1979860.0,1600928418.5841033,0
8.0,12.032499999999999,,,1981020.0,1600928418.6449728,0
8.0,7.627500000000001,,,1983254.0,1600928418.7058425,0
8.0,0.9974999999999999,0.341971,34.09,1986676.5,1600928418.766712,0
8.0,-5.273333333333333,,,1990941.0,1600928418.8275814,0
8.0,-12.695,,,1994769.5,1600928418.888451,0
8.0,-20.7,,,1998861.0,1600928418.9493206,0
8.0,-28.305,0.33941,34.09,2002639.5,1600928419.0101902,0
8.0,-38.97,,,1999452.0,1600928419.0710597,0
8.0,-29.089999999999996,,,1989810.5,1600928419.1319294,0
8.0,0.0674999999999999,,,1984242.0,1600928419.1927989,0
8.0,14.995000000000001,0.338129,34.11,1983027.5,1600928419.2536685,0
8.0,15.612499999999999,,,1983840.0,1600928419.314538,0
8.0,14.404999999999998,,,1984709.0,1600928419.3754077,0
8.0,14.94,,,1985020.0,1600928419.4362772,0
8.0,14.735000000000001,,,1986021.0,1600928419.4971468,0
8.0,12.78,0.338129,34.11,1988288.0,1600928419.5580163,0
8.0,9.435,,,1991423.0,1600928419.6188858,0
8.0,13.8275,,,1995297.0,1600928419.6797554,0
8.0,12.28,,,1999601.0,1600928419.740625,0
8.0,-3.6925,0.338129,34.11,2003941.0,1600928419.8014946,0
8.0,-19.490000000000002,,,2008378.0,1600928419.862364,0
8.0,-30.709999999999997,,,2008503.5,1600928419.9232337,0
8.0,-41.836666666666666,,,1999708.0,1600928419.9841032,0
8.0,-33.43,0.34069,34.11,1994757.5,1600928420.044973,0
8.0,0.5349999999999997,,,1993462.0,1600928420.1058424,0
8.0,20.285,,,1994277.0,1600928420.166712,0
8.0,20.8775,,,1995256.0,1600928420.2275815,0
8.0,15.524999999999999,0.341971,34.11,1995653.0,1600928420.2884512,0
8.0,15.717500000000001,,,1996806.0,1600928420.3493207,0
8.0,20.505,,,1999074.0,1600928420.41019,0
8.0,20.3275,,,2002375.0,1600928420.4710598,0
8.0,13.829999999999998,0.34069,34.11,2005860.0,1600928420.5319293,0
8.0,6.3566666666666665,,,2009512.0,1600928420.592799,0
8.0,-1.7275,,,2013654.5,1600928420.6536684,0
8.0,-12.1375,,,2017701.0,1600928420.714538,0
8.0,-19.985,0.341971,34.11,2020827.0,1600928420.7754076,0
8.0,-28.127499999999998,,,2016251.0,1600928420.8362772,0
8.0,-42.7325,,,2008486.5,1600928420.8971467,0
8.0,-37.2225,,,2005171.0,1600928420.9580164,0
8.0,-2.6925000000000003,0.341971,34.11,2005132.5,1600928421.0188859,0
8.0,20.7725,,,2006252.0,1600928421.0797555,0
8.0,25.133333333333336,,,2006801.0,1600928421.140625,0
8.0,20.595,,,2007030.0,1600928421.2014945,0
8.0,20.0975,0.34069,34.11,2008304.5,1600928421.2623641,0
8.0,22.715000000000003,,,2010452.0,1600928421.3232336,0
8.0,23.465000000000003,,,2013566.5,1600928421.3841033,0
8.0,18.445,,,2017146.0,1600928421.4449728,0
8.0,8.6375,0.33941,34.11,2020679.0,1600928421.5058424,0
8.0,-0.965,,,2025399.0,1600928421.566712,0
8.0,-12.174999999999999,,,2028923.0,1600928421.6275816,0
8.0,-21.599999999999998,,,2029692.0,1600928421.688451,0
8.0,-31.206666666666667,,,2022140.0,1600928421.7493207,0
8.0,-47.2375,0.338129,34.11,2015864.5,1600928421.8101902,0
8.0,-41.8525,,,2013818.0,1600928421.87106,0
8.0,-2.64,,,2014159.0,1600928421.9319293,0
8.0,23.527499999999996,,,2014930.0,1600928421.9927988,0
8.0,29.5375,0.34069,34.11,2014533.0,1600928422.0536685,0
8.0,27.115000000000002,,,2014433.0,1600928422.114538,0
8.0,25.6375,,,2015929.5,1600928422.1754076,0
8.0,27.214999999999996,,,2018061.0,1600928422.236277,0
8.0,27.97,0.34069,34.09,2020749.0,1600928422.2971468,0
8.0,21.66,,,2023754.0,1600928422.3580163,0
8.0,13.0,,,2026884.5,1600928422.418886,0
8.0,3.4875,,,2030017.0,1600928422.4797554,0
8.0,-7.9425,0.341971,34.09,2033275.5,1600928422.540625,0
8.0,-17.2625,,,2035655.0,1600928422.6014946,0
8.0,-27.372500000000002,,,2028600.0,1600928422.6623642,0
8.0,-45.652499999999996,,,2020013.0,1600928422.7232337,0
8.0,-41.25,0.343252,34.09,2016524.0,1600928422.7841032,0
8.0,-2.135,,,2015729.0,1600928422.8449728,0
8.0,23.060000000000002,,,2016160.5,1600928422.9058423,0
8.0,30.195,,,2015166.0,1600928422.966712,0
8.0,28.57,0.341971,34.09,2014461.0,1600928423.0275815,0
8.0,26.915,,,2015596.5,1600928423.0884511,0
8.0,29.8475,,,2017768.0,1600928423.1493206,0
8.0,29.9375,,,2019986.5,1600928423.2101903,0
8.0,23.939999999999998,0.341971,34.11,2022572.0,1600928423.2710598,0
8.0,14.307500000000001,,,2025321.0,1600928423.3319294,0
8.0,1.7375,,,2028170.0,1600928423.392799,0
8.0,-9.43,,,2031492.0,1600928423.4536686,0
8.0,-17.723333333333333,0.33941,34.11,2033990.0,1600928423.514538,0
8.0,-24.765,,,2027322.0,1600928423.5754075,0
8.0,-33.92,,,2018069.0,1600928423.6362772,0
8.0,-47.995000000000005,,,2014077.0,1600928423.6971467,0
8.0,-33.81,0.338129,34.11,2012821.0,1600928423.7580163,0
8.0,6.1875,,,2012922.0,1600928423.8188858,0
8.0,26.724999999999998,,,2011861.0,1600928423.8797555,0
8.0,27.79,,,2010555.0,1600928423.940625,0
8.0,25.2575,0.34069,34.11,2010478.0,1600928424.0014946,0
8.0,24.03333333333333,,,2011900.0,1600928424.062364,0
8.0,25.91,,,2014797.5,1600928424.1232338,0
8.0,25.259999999999998,,,2017136.0,1600928424.1841033,0
8.0,19.015,,,2019209.0,1600928424.244973,0
8.0,12.82,0.34069,34.09,2021934.0,1600928424.3058424,0
8.0,4.3100000000000005,,,2025920.0,1600928424.3667119,0
8.0,-4.092499999999999,,,2027708.0,1600928424.4275815,0
8.0,-11.0225,,,2017616.0,1600928424.488451,0
8.0,-17.737499999999997,0.34069,34.09,2007559.0,1600928424.5493207,0
8.0,-28.057499999999997,,,2002965.5,1600928424.6101902,0
8.0,-39.25666666666666,,,2001050.0,1600928424.6710598,0
8.0,-31.97,,,2000332.0,1600928424.7319293,0
8.0,-1.7024999999999997,0.34069,34.09,1998295.0,1600928424.792799,0
8.0,19.1425,,,1996568.5,1600928424.8536685,0
8.0,19.8625,,,1996546.0,1600928424.9145381,0
8.0,15.5425,,,1997756.5,1600928424.9754076,0
8.0,14.5225,0.343252,34.09,1999887.0,1600928425.036277,0
8.0,17.4875,,,2002391.0,1600928425.0971467,0
8.0,18.497500000000002,,,2004620.0,1600928425.1580162,0
8.0,14.530000000000001,,,2007353.0,1600928425.218886,0
8.0,10.433333333333335,0.343252,34.09,2010184.0,1600928425.2797554,0
8.0,3.8099999999999996,,,2012673.5,1600928425.340625,0
8.0,-2.49,,,2006679.0,1600928425.4014945,0
8.0,-9.73,,,1994090.5,1600928425.4623642,0
8.0,-15.815000000000001,0.343252,34.09,1986499.0,1600928425.5232337,0
8.0,-25.765,,,1983546.0,1600928425.5841033,0
8.0,-35.230000000000004,,,1982497.0,1600928425.6449728,0
8.0,-22.3575,,,1980704.0,1600928425.7058425,0
8.0,-0.20499999999999985,0.34069,34.09,1978369.0,1600928425.766712,0
8.0,12.296666666666667,,,1977807.5,1600928425.8275814,0
8.0,12.2425,,,1979341.0,1600928425.888451,0
8.0,8.0475,,,1981223.0,1600928425.9493206,0
8.0,11.225000000000001,0.34069,34.09,1983802.0,1600928426.0101902,0
8.0,15.4575,,,1986762.0,1600928426.0710597,0
8.0,11.907499999999999,,,1990322.0,1600928426.1319294,0
8.0,6.9175,,,1993706.0,1600928426.1927989,0
8.0,2.365,0.33941,34.07,1997299.5,1600928426.2536685,0
8.0,-2.1825,,,1999083.0,1600928426.314538,0
8.0,-4.6,,,1989208.0,1600928426.3754077,0
8.0,-10.1,,,1979746.0,1600928426.4362772,0
8.0,-14.5975,,,1976495.0,1600928426.4971468,0
8.0,-24.0875,0.33941,34.07,1976109.0,1600928426.5580163,0
8.0,-36.725,,,1976474.0,1600928426.6188858,0
8.0,-19.1975,,,1976055.0,1600928426.6797554,0
8.0,6.8025,,,1975708.5,1600928426.740625,0
8.0,10.95,0.341971,34.07,1976849.0,1600928426.8014946,0
8.0,7.195,,,1979620.5,1600928426.862364,0
8.0,6.1675,,,1982679.0,1600928426.9232337,0
8.0,7.006666666666667,,,1986442.0,1600928426.9841032,0
8.0,8.4025,0.344533,34.07,1990252.0,1600928427.044973,0
8.0,9.635000000000002,,,1994185.0,1600928427.1058424,0
8.0,5.1925,,,1998199.0,1600928427.166712,0
8.0,-1.37,,,2002579.0,1600928427.2275815,0
8.0,-6.07,0.343252,34.09,2006447.5,1600928427.2884512,0
8.0,-12.815000000000001,,,2001235.0,1600928427.3493207,0
8.0,-20.327499999999997,,,1996624.0,1600928427.41019,0
8.0,-29.752499999999998,,,1995917.0,1600928427.4710598,0
8.0,-42.2675,0.343252,34.09,1997515.0,1600928427.5319293,0
8.0,-39.75333333333334,,,1999773.0,1600928427.592799,0
8.0,-14.305,,,2000884.5,1600928427.6536684,0
8.0,9.8575,,,2002094.0,1600928427.714538,0
8.0,17.5075,0.343252,34.09,2004550.0,1600928427.7754076,0
8.0,14.8975,,,2008055.0,1600928427.8362772,0
8.0,16.3325,,,2012010.5,1600928427.8971467,0
8.0,17.97,,,2016296.0,1600928427.9580164,0
8.0,15.6475,0.34069,34.09,2020554.5,1600928428.0188859,0
8.0,10.29,,,2024722.0,1600928428.0797555,0
8.0,4.363333333333334,,,2028674.0,1600928428.140625,0
8.0,-2.5324999999999998,,,2032989.0,1600928428.2014945,0
8.0,-4.922499999999999,0.33941,34.09,2035444.0,1600928428.2623641,0
8.0,-10.6425,,,2031058.0,1600928428.3232336,0
8.0,-17.0975,,,2027672.5,1600928428.3841033,0
8.0,-27.7875,,,2027863.0,1600928428.4449728,0
8.0,-40.03,0.33941,34.09,2030429.5,1600928428.5058424,0
8.0,-22.950000000000003,,,2033494.0,1600928428.566712,0
8.0,4.9525,,,2033857.0,1600928428.6275816,0
8.0,8.879999999999999,,,2033435.0,1600928428.688451,0
8.0,3.763333333333333,,,2036211.0,1600928428.7493207,0
8.0,-2.8674999999999997,0.33941,34.09,2041781.0,1600928428.8101902,0
8.0,-7.89,,,2047244.0,1600928428.87106,0
8.0,-10.0,,,2051012.5,1600928428.9319293,0
8.0,-17.615000000000002,,,2054282.0,1600928428.9927988,0
8.0,-27.1875,0.341971,34.09,2058541.5,1600928429.0536685,0
8.0,-20.795,,,2067159.0,1600928429.114538,0
8.0,-7.084999999999999,,,2077782.0,1600928429.1754076,0
8.0,5.12,,,2086203.0,1600928429.236277,0
8.0,12.7925,0.344533,34.09,2090381.0,1600928429.2971468,0
8.0,13.996666666666668,,,2093997.0,1600928429.3580163,0
8.0,5.405,,,2100078.5,1600928429.418886,0
8.0,9.580000000000002,,,2108753.0,1600928429.4797554,0
8.0,39.317499999999995,0.344533,34.09,2117229.0,1600928429.540625,0
8.0,53.46,,,2125744.0,1600928429.6014946,0
8.0,45.855,,,2132464.5,1600928429.6623642,0
8.0,32.8875,,,2138605.0,1600928429.7232337,0
8.0,26.0225,0.345814,34.09,2144366.0,1600928429.7841032,0
8.0,16.8925,,,2150241.0,1600928429.8449728,0
8.0,5.38,,,2155649.0,1600928429.9058423,0
8.0,-6.9925,,,2161247.0,1600928429.966712,0
8.0,-12.91,0.344533,34.09,2166467.0,1600928430.0275815,0
8.0,-8.9375,,,2171829.0,1600928430.0884511,0
8.0,-1.2999999999999998,,,2174997.5,1600928430.1493206,0
8.0,0.24749999999999997,,,2173697.5,1600928430.2101903,0
8.0,-4.470000000000001,0.345814,34.09,2169988.0,1600928430.2710598,0
8.0,-18.77,,,2167928.0,1600928430.3319294,0
8.0,-14.1825,,,2166800.0,1600928430.392799,0
8.0,20.354999999999997,,,2166618.0,1600928430.4536686,0
8.0,39.24,0.343252,34.09,2165319.0,1600928430.514538,0
8.0,38.8675,,,2163984.0,1600928430.5754075,0
8.0,37.6875,,,2162121.0,1600928430.6362772,0
8.0,46.68,,,2160472.5,1600928430.6971467,0
8.0,48.9075,0.344533,34.09,2159020.0,1600928430.7580163,0
8.0,31.06,,,2157943.5,1600928430.8188858,0
8.0,5.0825,,,2157029.0,1600928430.8797555,0
8.0,-20.5125,,,2155688.0,1600928430.940625,0
8.0,-36.155,0.341971,34.09,2154437.0,1600928431.0014946,0
8.0,-42.099999999999994,,,2152930.0,1600928431.062364,0
8.0,-42.3875,,,2150820.0,1600928431.1232338,0
8.0,-42.565,,,2144051.5,1600928431.1841033,0
8.0,-52.345,,,2134308.0,1600928431.244973,0
8.0,-48.3275,0.344533,34.07,2129281.0,1600928431.3058424,0
8.0,-25.642500000000002,,,2126934.0,1600928431.3667119,0
8.0,-16.2125,,,2125935.0,1600928431.4275815,0
8.0,-16.925,,,2126131.0,1600928431.488451,0
8.0,-20.7775,0.344533,34.07,2129576.0,1600928431.5493207,0
8.0,-14.479999999999999,,,2134036.0,1600928431.6101902,0
8.0,3.293333333333333,,,2138765.0,1600928431.6710598,0
8.0,13.6725,,,2141628.5,1600928431.7319293,0
8.0,7.345,0.345814,34.07,2143645.0,1600928431.792799,0
8.0,-5.415,,,2147053.0,1600928431.8536685,0
8.0,-9.245000000000001,,,2149781.0,1600928431.9145381,0
8.0,-10.417499999999999,,,2152935.5,1600928431.9754076,0
8.0,-9.795,0.344533,34.07,2156244.0,1600928432.036277,0
8.0,-17.715,,,2151405.5,1600928432.0971467,0
8.0,-30.6125,,,2143105.0,1600928432.1580162,0
8.0,-8.862499999999999,,,2139690.0,1600928432.218886,0
8.0,15.483333333333334,0.344533,34.09,2139513.0,1600928432.2797554,0
8.0,24.1225,,,2140757.5,1600928432.340625,0
8.0,28.880000000000003,,,2141096.0,1600928432.4014945,0
8.0,33.8,,,2141493.0,1600928432.4623642,0
8.0,38.555,0.341971,34.09,2142938.0,1600928432.5232337,0
8.0,39.9975,,,2144780.5,1600928432.5841033,0
8.0,40.6675,,,2147539.0,1600928432.6449728,0
8.0,33.565,,,2150984.5,1600928432.7058425,0
8.0,16.595000000000002,0.341971,34.09,2154342.0,1600928432.766712,0
8.0,1.0366666666666664,,,2158047.5,1600928432.8275814,0
8.0,-9.3575,,,2162425.0,1600928432.888451,0
8.0,-17.165,,,2165831.0,1600928432.9493206,0
8.0,-26.064999999999998,0.341971,34.09,2163660.5,1600928433.0101902,0
8.0,-15.84,,,2156598.0,1600928433.0710597,0
8.0,14.775,,,2152808.0,1600928433.1319294,0
8.0,25.745,,,2151322.5,1600928433.1927989,0
8.0,14.275,0.343252,34.07,2152696.0,1600928433.2536685,0
8.0,0.5550000000000003,,,2153299.0,1600928433.314538,0
8.0,-6.115,,,2152824.5,1600928433.3754077,0
8.0,-10.6,,,2153114.0,1600928433.4362772,0
8.0,-14.6325,,,2154460.5,1600928433.4971468,0
8.0,-26.33,0.344533,34.07,2157179.0,1600928433.5580163,0
8.0,-41.6025,,,2159420.0,1600928433.6188858,0
8.0,-45.735,,,2163104.5,1600928433.6797554,0
8.0,-49.32249999999999,,,2165343.0,1600928433.740625,0
8.0,-48.4225,0.345814,34.07,2167187.0,1600928433.8014946,0
8.0,-45.870000000000005,,,2168846.0,1600928433.862364,0
8.0,-55.379999999999995,,,2161017.5,1600928433.9232337,0
8.0,-54.07,,,2151142.0,1600928433.9841032,0
8.0,-14.915000000000001,0.345814,34.07,2146860.5,1600928434.044973,0
8.0,24.842499999999998,,,2146883.0,1600928434.1058424,0
8.0,34.824999999999996,,,2147388.0,1600928434.166712,0
8.0,29.765,,,2145209.5,1600928434.2275815,0
8.0,25.48,0.345814,34.05,2143871.0,1600928434.2884512,0
8.0,24.3425,,,2144692.0,1600928434.3493207,0
8.0,29.6525,,,2147682.0,1600928434.41019,0
8.0,30.7,,,2151817.5,1600928434.4710598,0
8.0,23.307499999999997,0.345814,34.05,2155400.0,1600928434.5319293,0
8.0,14.100000000000001,,,2158037.0,1600928434.592799,0
8.0,5.7675,,,2160406.0,1600928434.6536684,0
8.0,-7.67,,,2163065.0,1600928434.714538,0
8.0,-21.195,0.344533,34.05,2158171.0,1600928434.7754076,0
8.0,-36.540000000000006,,,2144060.0,1600928434.8362772,0
8.0,-49.5625,,,2134831.0,1600928434.8971467,0
8.0,-27.5275,,,2131811.0,1600928434.9580164,0
8.0,5.585,0.341971,34.05,2131657.0,1600928435.0188859,0
8.0,18.057499999999997,,,2131398.0,1600928435.0797555,0
8.0,16.19333333333333,,,2129341.0,1600928435.140625,0
8.0,14.765,,,2128901.0,1600928435.2014945,0
8.0,21.0275,0.341971,34.05,2130036.0,1600928435.2623641,0
8.0,32.565,,,2132155.0,1600928435.3232336,0
8.0,37.572500000000005,,,2137180.0,1600928435.3841033,0
8.0,35.195,,,2141079.0,1600928435.4449728,0
8.0,26.6725,0.34069,34.05,2144913.0,1600928435.5058424,0
8.0,16.035,,,2148968.0,1600928435.566712,0
8.0,7.175000000000001,,,2150128.0,1600928435.6275816,0
8.0,-2.6825,,,2140617.0,1600928435.688451,0
8.0,-15.066666666666668,,,2129647.0,1600928435.7493207,0
8.0,-37.9125,0.34069,34.05,2124705.0,1600928435.8101902,0
8.0,-46.655,,,2124461.0,1600928435.87106,0
8.0,-12.0375,,,2125282.0,1600928435.9319293,0
8.0,17.25,,,2124081.0,1600928435.9927988,0
8.0,19.54,0.343252,34.05,2123264.0,1600928436.0536685,0
8.0,12.6975,,,2122764.0,1600928436.114538,0
8.0,14.6325,,,2124270.0,1600928436.1754076,0
8.0,21.987499999999997,,,2127319.0,1600928436.236277,0
8.0,25.12,0.341971,34.07,2130518.0,1600928436.2971468,0
8.0,17.816666666666666,,,2133535.5,1600928436.3580163,0
8.0,9.865,,,2135662.0,1600928436.418886,0
8.0,-1.915,,,2138171.5,1600928436.4797554,0
8.0,-9.9525,0.344533,34.07,2139393.0,1600928436.540625,0
8.0,-17.6125,,,2125329.0,1600928436.6014946,0
8.0,-29.1625,,,2108277.0,1600928436.6623642,0
8.0,-39.1675,,,2101336.5,1600928436.7232337,0
8.0,-56.7,0.344533,34.07,2100096.5,1600928436.7841032,0
8.0,-43.582499999999996,,,2100294.0,1600928436.8449728,0
8.0,3.2266666666666666,,,2097543.0,1600928436.9058423,0
8.0,36.64,,,2094727.0,1600928436.966712,0
8.0,51.11749999999999,0.344533,34.07,2094204.5,1600928437.0275815,0
8.0,54.7975,,,2094433.0,1600928437.0884511,0
8.0,53.582499999999996,,,2096062.5,1600928437.1493206,0
8.0,49.065,,,2098117.0,1600928437.2101903,0
8.0,36.9875,0.341971,34.05,2099806.5,1600928437.2710598,0
8.0,17.63,,,2101669.0,1600928437.3319294,0
8.0,4.045,,,2104452.0,1600928437.392799,0
8.0,-8.7175,,,2106618.0,1600928437.4536686,0
8.0,-25.319999999999997,0.34069,34.05,2091919.0,1600928437.514538,0
8.0,-33.94,,,2072017.0,1600928437.5754075,0
8.0,-41.72,,,2061979.0,1600928437.6362772,0
8.0,-49.635000000000005,,,2057342.0,1600928437.6971467,0
8.0,-68.845,0.34069,34.05,2056020.0,1600928437.7580163,0
8.0,-76.485,,,2052698.0,1600928437.8188858,0
8.0,-26.14,,,2047859.0,1600928437.8797555,0
8.0,23.560000000000002,,,2045609.0,1600928437.940625,0
8.0,37.214999999999996,0.343252,34.05,2045909.0,1600928438.0014946,0
8.0,33.50000000000001,,,2047901.0,1600928438.062364,0
8.0,30.285000000000004,,,2050476.5,1600928438.1232338,0
8.0,33.0075,,,2054148.5,1600928438.1841033,0
8.0,41.1525,,,2056841.0,1600928438.244973,0
8.0,40.667500000000004,0.343252,34.05,2059830.0,1600928438.3058424,0
8.0,29.9975,,,2063551.0,1600928438.3667119,0
8.0,19.415,,,2057389.0,1600928438.4275815,0
8.0,4.6525,,,2035317.0,1600928438.488451,0
8.0,-6.077500000000001,0.344533,34.05,2020532.5,1600928438.5493207,0
8.0,-16.7075,,,2014452.0,1600928438.6101902,0
8.0,-26.39,,,2013293.5,1600928438.6710598,0
8.0,-37.25,,,2011664.0,1600928438.7319293,0
8.0,-55.4025,0.345814,34.05,2007391.0,1600928438.792799,0
8.0,-42.712500000000006,,,2004597.0,1600928438.8536685,0
8.0,9.425,,,2004441.0,1600928438.9145381,0
8.0,40.915000000000006,,,2005433.0,1600928438.9754076,0
8.0,41.09,0.344533,34.05,2007709.5,1600928439.036277,0
8.0,29.45,,,2010688.0,1600928439.0971467,0
8.0,26.845,,,2013069.5,1600928439.1580162,0
8.0,32.364999999999995,,,2016096.0,1600928439.218886,0
8.0,35.02666666666667,0.345814,34.09,2019065.5,1600928439.2797554,0
8.0,27.064999999999998,,,2024325.0,1600928439.340625,0
8.0,16.3175,,,2022310.5,1600928439.4014945,0
8.0,2.925,,,2000660.0,1600928439.4623642,0
8.0,-8.504999999999999,0.345814,34.09,1982370.0,1600928439.5232337,0
8.0,-21.1575,,,1973075.0,1600928439.5841033,0
8.0,-32.285,,,1971308.0,1600928439.6449728,0
8.0,-45.8125,,,1969568.0,1600928439.7058425,0
8.0,-65.255,0.343252,34.09,1966416.0,1600928439.766712,0
8.0,-46.53,,,1965036.5,1600928439.8275814,0
8.0,3.2249999999999996,,,1966518.0,1600928439.888451,0
8.0,37.739999999999995,,,1969691.0,1600928439.9493206,0
8.0,40.93,0.341971,34.09,1973599.0,1600928440.0101902,0
8.0,32.205,,,1977570.0,1600928440.0710597,0
8.0,29.130000000000003,,,1981605.0,1600928440.1319294,0
8.0,32.732499999999995,,,1986070.5,1600928440.1927989,0
8.0,28.595000000000002,0.341971,34.07,1990932.0,1600928440.2536685,0
8.0,14.424999999999999,,,1996709.5,1600928440.314538,0
8.0,0.33999999999999964,,,2001351.0,1600928440.3754077,0
8.0,-13.290000000000001,,,1983795.0,1600928440.4362772,0
8.0,-21.9225,,,1962358.0,1600928440.4971468,0
8.0,-32.165,0.341971,34.07,1953601.0,1600928440.5580163,0
8.0,-40.760000000000005,,,1950054.0,1600928440.6188858,0
8.0,-45.6125,,,1950108.5,1600928440.6797554,0
8.0,-58.4825,,,1948453.0,1600928440.740625,0
8.0,-31.4725,0.344533,34.07,1945626.0,1600928440.8014946,0
8.0,15.985,,,1945584.0,1600928440.862364,0
8.0,33.3925,,,1948165.0,1600928440.9232337,0
8.0,34.56,,,1954513.0,1600928440.9841032,0
8.0,30.04,0.345814,34.07,1959655.0,1600928441.044973,0
8.0,22.047500000000003,,,1965189.5,1600928441.1058424,0
8.0,18.662499999999998,,,1971005.0,1600928441.166712,0
8.0,15.5475,,,1977489.5,1600928441.2275815,0
8.0,10.0175,0.347094,34.07,1984450.0,1600928441.2884512,0
8.0,7.595000000000001,,,1991531.0,1600928441.3493207,0
8.0,4.4575000000000005,,,1988462.0,1600928441.41019,0
8.0,0.8099999999999999,,,1969588.0,1600928441.4710598,0
8.0,-8.4575,0.345814,34.07,1958329.0,1600928441.5319293,0
8.0,-20.683333333333334,,,1956844.5,1600928441.592799,0
8.0,-33.2225,,,1959584.0,1600928441.6536684,0
8.0,-54.36749999999999,,,1961559.0,1600928441.714538,0
8.0,-48.87500000000001,0.345814,34.07,1960422.0,1600928441.7754076,0
8.0,-3.9325,,,1961019.0,1600928441.8362772,0
8.0,23.7525,,,1964129.0,1600928441.8971467,0
8.0,30.427500000000002,,,1969461.0,1600928441.9580164,0
8.0,31.71,0.343252,34.07,1975508.0,1600928442.0188859,0
8.0,32.43,,,1981542.5,1600928442.0797555,0
8.0,34.43333333333334,,,1987408.0,1600928442.140625,0
8.0,35.41,,,1992881.5,1600928442.2014945,0
8.0,28.83,0.341971,34.07,1998584.0,1600928442.2623641,0
8.0,18.977500000000003,,,2004505.5,1600928442.3232336,0
8.0,8.4075,,,1995333.0,1600928442.3841033,0
8.0,-6.9,,,1973441.0,1600928442.4449728,0
8.0,-19.665,0.341971,34.07,1962576.5,1600928442.5058424,0
8.0,-31.355,,,1958794.0,1600928442.566712,0
8.0,-43.43,,,1958930.0,1600928442.6275816,0
8.0,-52.95,,,1957648.0,1600928442.688451,0
8.0,-65.74000000000001,,,1954198.0,1600928442.7493207,0
8.0,-59.53249999999999,0.341971,34.07,1953340.0,1600928442.8101902,0
8.0,-16.475,,,1955453.5,1600928442.87106,0
8.0,16.5625,,,1958941.0,1600928442.9319293,0
8.0,23.93,,,1963486.5,1600928442.9927988,0
8.0,20.619999999999997,0.343252,34.07,1967852.0,1600928443.0536685,0
8.0,17.5475,,,1972559.5,1600928443.114538,0
8.0,16.735,,,1978057.0,1600928443.1754076,0
8.0,14.860000000000001,,,1984706.0,1600928443.236277,0
8.0,8.4325,0.343252,34.05,1992118.0,1600928443.2971468,0
8.0,1.8533333333333333,,,1986353.5,1600928443.3580163,0
8.0,-0.545,,,1966002.0,1600928443.418886,0
8.0,-1.7475,,,1954049.0,1600928443.4797554,0
8.0,-1.6925000000000001,0.345814,34.05,1948594.0,1600928443.540625,0
8.0,2.73,,,1947146.5,1600928443.6014946,0
8.0,5.180000000000001,,,1945929.0,1600928443.6623642,0
8.0,-1.565,,,1943295.5,1600928443.7232337,0
8.0,-16.865000000000002,0.343252,34.05,1943768.5,1600928443.7841032,0
8.0,-36.4275,,,1946591.0,1600928443.8449728,0
8.0,-27.826666666666664,,,1950629.5,1600928443.9058423,0
8.0,-2.61,,,1955485.0,1600928443.966712,0
8.0,15.59,0.343252,34.05,1960750.5,1600928444.0275815,0
8.0,21.6625,,,1966294.0,1600928444.0884511,0
8.0,22.604999999999997,,,1971873.0,1600928444.1493206,0
8.0,26.042499999999997,,,1977940.0,1600928444.2101903,0
8.0,29.925,0.34069,34.03,1984754.5,1600928444.2710598,0
8.0,30.322499999999998,,,1984766.0,1600928444.3319294,0
8.0,23.77,,,1969862.5,1600928444.392799,0
8.0,18.9425,,,1959473.0,1600928444.4536686,0
8.0,14.12,0.341971,34.03,1956387.5,1600928444.514538,0
8.0,9.157499999999999,,,1955945.0,1600928444.5754075,0
8.0,1.8825,,,1956327.0,1600928444.6362772,0
8.0,-9.665,,,1955567.0,1600928444.6971467,0
8.0,-22.959999999999997,0.341971,34.03,1956703.0,1600928444.7580163,0
8.0,-37.525,,,1960059.0,1600928444.8188858,0
8.0,-59.07,,,1964706.0,1600928444.8797555,0
8.0,-51.7,,,1969596.0,1600928444.940625,0
8.0,-15.695,0.343252,34.03,1974459.0,1600928445.0014946,0
8.0,0.01666666666666668,,,1979660.0,1600928445.062364,0
8.0,3.4,,,1984843.5,1600928445.1232338,0
8.0,8.530000000000001,,,1990699.0,1600928445.1841033,0
8.0,14.33,,,1996792.0,1600928445.244973,0
8.0,20.8475,0.345814,34.05,2003863.0,1600928445.3058424,0
8.0,21.052500000000002,,,2006903.5,1600928445.3667119,0
8.0,16.655,,,1998761.0,1600928445.4275815,0
8.0,9.924999999999999,,,1991277.0,1600928445.488451,0
8.0,0.17000000000000007,0.344533,34.05,1988770.0,1600928445.5493207,0
8.0,6.6675,,,1989917.5,1600928445.6101902,0
8.0,19.636666666666667,,,1992019.0,1600928445.6710598,0
8.0,30.4925,,,1993092.5,1600928445.7319293,0
8.0,33.977500000000006,0.345814,34.05,1995904.5,1600928445.792799,0
