ID,empatica_bvp,empatica_eda,empatica_temp,samsung_bvp,time,CL
0,7.32,0.522594,34.93,2192602.0,1767084367.776875,1
0,-83.906667,0.518752,34.95,2161118.0,1767084369.281875,1
0,1.44,0.522594,34.95,2156133.0,1767084369.526875,1
0,22.335,0.525156,34.95,2137444.0,1767084369.771875,1
0,-3.575,0.526437,34.91,2128318.0,1767084370.506875,1
0,-46.826667,0.530279,34.91,2128904.0,1767084371.031875,1
0,-7.79,0.525156,34.91,2118429.0,1767084371.521875,1
0,-8.19,0.523875,34.91,2112116.0,1767084372.011875,1
0,5.7,0.521313,34.93,2048402.0,1767084373.271875,1
0,-9.265,0.522594,34.93,2044186.0,1767084374.006875,1
0,49.456667,0.518752,34.95,2047149.0,1767084374.251875,1
0,-47.29,0.521313,34.95,2041690.0,1767084374.776875,1
0,0.57,0.521313,34.97,2053464.0,1767084375.266875,1
0,-29.435,0.514909,34.97,2051614.0,1767084375.511875,1
0,-21.525,0.522594,34.97,2051201.0,1767084375.756875,1
0,76.79,0.521313,34.97,2060183.0,1767084376.001875,1
0,46.656667,0.520033,34.95,2067569.0,1767084376.281875,1
0,-19.115,0.523875,34.93,2058765.0,1767084377.261875,1
0,-2.746667,0.520033,34.93,2087333.0,1767084377.751875,1
0,36.615,0.520033,34.95,2069198.0,1767084378.276875,1
0,-156.64,0.521313,34.95,2081510.0,1767084379.256875,1
0,-6.475,0.517471,34.95,2083182.0,1767084380.026875,1
0,-12.88,0.518752,34.99,2089039.0,1767084380.271875,1
0,40.81,0.51619,34.99,2081796.0,1767084380.516875,1
0,32.22,0.514909,34.97,2071928.0,1767084381.531875,1
0,-7.3,0.517471,34.97,2081737.0,1767084382.021875,1
0,-43.023333,0.51619,34.97,2079389.0,1767084382.266875,1
0,3.205,0.514909,34.97,2082907.0,1767084382.511875,1
0,-9.835,0.505943,34.99,2082477.0,1767084384.261875,1
0,-68.095,0.508505,34.99,2079577.0,1767084384.506875,1
0,28.836667,0.505943,34.99,2082810.0,1767084384.751875,1
0,-18.023333,0.504662,34.99,2086790.0,1767084385.031875,1
0,35.725,0.504662,34.99,2066334.0,1767084386.256875,1
0,31.836667,0.504662,34.99,2068913.0,1767084386.501875,1
0,-64.223333,0.5021,34.99,2062985.0,1767084387.516875,1
0,19.83,0.50082,34.99,2066032.0,1767084387.761875,1
0,-7.456667,0.50082,34.99,2047622.0,1767084388.251875,1
0,-17.57,0.50082,34.99,2058021.0,1767084388.776875,1
0,76.545,0.496977,34.99,2073533.0,1767084389.021875,1
0,7.143333,0.488011,34.99,2058906.0,1767084391.016875,1
0,27.14,0.489292,34.95,2068883.0,1767084391.261875,1
0,48.79,0.489292,34.95,2068773.0,1767084391.506875,1
0,-78.01,0.490573,34.99,2081652.0,1767084392.276875,1
0,-5.75,0.489292,34.99,2088758.0,1767084392.766875,1
0,-5.323333,0.48673,34.97,2089505.0,1767084393.501875,1
0,15.466667,0.489292,34.97,2094810.0,1767084393.781875,1
0,28.69,0.488011,34.99,2093542.0,1767084394.761875,1
0,-9.21,0.484168,34.99,2091693.0,1767084395.006875,1
0,12.46,0.48673,34.99,2102571.0,1767084395.251875,1
0,41.833333,0.484168,34.99,2092072.0,1767084395.531875,1
0,-22.82,0.482887,34.99,2069775.0,1767084396.021875,1
0,3.93,0.482887,34.99,2078836.0,1767084396.511875,1
0,37.89,0.484168,34.99,2082023.0,1767084396.756875,1
0,15.48,0.481606,34.99,2083411.0,1767084397.001875,1
0,-45.743333,0.479045,34.99,2079251.0,1767084397.281875,1
0,-11.555,0.480326,34.99,2080786.0,1767084397.526875,1
0,-38.45,0.481606,34.99,2052288.0,1767084398.016875,1
0,42.74,0.476483,34.99,2044374.0,1767084399.031875,1
0,1.78,0.47136,34.99,2054020.0,1767084400.011875,1
0,36.753333,0.47136,34.99,2074306.0,1767084400.501875,1
0,72.985,0.476483,35.0,2090595.0,1767084402.006875,1
0,-124.386667,0.477764,34.99,2091937.0,1767084402.251875,1
0,14.943333,0.476483,34.99,2099544.0,1767084402.531875,1
0,-27.233333,0.477764,34.97,2114913.0,1767084403.266875,1
0,19.703333,0.479045,34.97,2112763.0,1767084404.001875,1
0,55.535,0.482887,34.99,2101912.0,1767084404.526875,1
0,75.93,0.481606,34.99,2097552.0,1767084404.771875,1
0,-48.765,0.484168,34.99,2096841.0,1767084405.506875,1
0,62.903333,0.485449,34.99,2095205.0,1767084405.751875,1
0,6.21,0.484168,34.99,2064322.0,1767084406.521875,1
0,17.006667,0.484168,34.99,2077601.0,1767084406.766875,1
0,-3.425,0.480326,34.99,2083320.0,1767084407.011875,1
0,69.41,0.484168,34.99,2086740.0,1767084407.256875,1
0,-15.995,0.481606,34.99,2100988.0,1767084408.026875,1
0,-33.94,0.482887,35.0,2095941.0,1767084408.271875,1
0,20.44,0.482887,35.0,2064576.0,1767084408.761875,1
0,-36.155,0.479045,35.0,2057120.0,1767084409.006875,1
0,36.423333,0.479045,34.99,2074706.0,1767084409.251875,1
0,1.675,0.484168,34.99,2080418.0,1767084410.756875,1
0,-4.015,0.480326,34.97,2048658.0,1767084412.506875,1
0,-47.735,0.476483,34.99,2039256.0,1767084413.276875,1
0,55.13,0.480326,34.99,2037612.0,1767084413.521875,1
0,27.985,0.476483,34.99,2041200.0,1767084414.011875,1
0,-130.496667,0.480326,35.0,2052621.0,1767084414.501875,1
0,-77.36,0.482887,35.0,2047979.0,1767084414.781875,1
0,-49.44,0.481606,34.97,2042578.0,1767084415.516875,1
0,81.65,0.481606,34.97,2029180.0,1767084416.006875,1
0,106.966667,0.484168,34.99,2042335.0,1767084416.251875,1
0,-99.96,0.48673,34.99,2043211.0,1767084416.776875,1
0,16.395,0.488011,34.97,2024013.0,1767084417.756875,1
0,-33.15,0.485449,34.97,2012150.0,1767084418.001875,1
0,40.9,0.482887,34.99,2035520.0,1767084418.281875,1
0,-17.935,0.485449,34.99,2058347.0,1767084419.261875,1
0,21.036667,0.484168,34.99,2060444.0,1767084419.751875,1
0,29.89,0.482887,34.99,2042908.0,1767084420.031875,1
0,-43.785,0.481606,34.97,2015448.0,1767084420.276875,1
0,16.883333,0.480326,34.97,2020574.0,1767084420.766875,1
0,25.38,0.479045,34.97,2019778.0,1767084421.256875,1
0,30.27,0.475202,34.97,2019056.0,1767084422.271875,1
0,-69.265,0.475202,34.97,1998056.0,1767084422.761875,1
0,34.055,0.475202,34.97,2003288.0,1767084423.006875,1
0,-1.366667,0.47264,34.97,2005891.0,1767084423.251875,1
0,19.526667,0.47136,34.97,2000767.0,1767084423.531875,1
0,-16.885,0.473921,34.97,2005694.0,1767084424.021875,1
0,-63.573333,0.464955,34.99,1977918.0,1767084425.001875,1
0,49.106667,0.464955,34.97,1975925.0,1767084425.281875,1
0,-30.8,0.470079,34.97,2003637.0,1767084425.771875,1
0,-37.113333,0.47136,34.97,2014939.0,1767084426.016875,1
0,4.68,0.468798,34.97,2025691.0,1767084426.261875,1
0,47.743333,0.468798,34.97,2037954.0,1767084427.031875,1
0,-15.915,0.464955,34.95,2050010.0,1767084429.026875,1
0,1.573333,0.462393,34.95,2076975.0,1767084431.266875,1
0,16.5,0.459832,34.95,2086251.0,1767084431.511875,1
0,-24.685,0.458551,34.95,2085984.0,1767084431.756875,1
0,7.04,0.450866,34.95,2071787.0,1767084432.001875,1
0,-1.855,0.454708,34.97,2067464.0,1767084432.526875,1
0,31.275,0.454708,34.97,2073230.0,1767084432.771875,1
0,0.796667,0.454708,34.97,2083801.0,1767084433.016875,1
0,-4.81,0.458551,34.97,2094943.0,1767084433.506875,1
0,0.15,0.450866,34.95,2104498.0,1767084434.521875,1
0,57.15,0.452147,34.93,2118631.0,1767084435.256875,1
0,37.33,0.454708,34.93,2123760.0,1767084435.501875,1
0,56.28,0.453427,34.97,2129810.0,1767084436.271875,1
0,33.396667,0.453427,34.97,2135269.0,1767084436.516875,1
0,-51.5,0.449585,34.97,2134426.0,1767084436.761875,1
0,39.89,0.452147,34.97,2135815.0,1767084437.006875,1
0,-147.305,0.459832,34.95,2145273.0,1767084437.776875,1
0,8.715,0.461113,34.95,2152795.0,1767084438.021875,1
0,-1.42,0.459832,34.93,2153587.0,1767084438.266875,1
0,-34.395,0.458551,34.93,2150342.0,1767084438.511875,1
0,31.055,0.459832,34.93,2140021.0,1767084438.756875,1
0,65.865,0.455989,34.93,2144223.0,1767084439.771875,1
0,-77.765,0.458551,34.95,2144931.0,1767084440.261875,1
0,20.04,0.453427,34.95,2145659.0,1767084440.751875,1
0,17.666667,0.458551,34.95,2141384.0,1767084441.031875,1
0,9.96,0.450866,34.93,2114484.0,1767084441.766875,1
0,-28.395,0.454708,34.93,2090226.0,1767084442.011875,1
0,-29.276667,0.454708,34.95,2110528.0,1767084442.781875,1
0,52.465,0.454708,34.95,2120750.0,1767084443.026875,1
0,-9.525,0.45727,34.93,2122879.0,1767084443.271875,1
0,25.946667,0.455989,34.93,2075179.0,1767084444.531875,1
0,31.12,0.454708,34.93,2083006.0,1767084445.021875,1
0,38.755,0.450866,34.91,2077802.0,1767084446.526875,1
0,53.37,0.450866,34.93,2085749.0,1767084447.261875,1
0,-88.653333,0.452147,34.93,2091299.0,1767084448.031875,1
0,-31.88,0.448304,34.91,2092301.0,1767084448.276875,1
0,48.885,0.447023,34.91,2097562.0,1767084448.521875,1
0,-23.305,0.448304,34.91,2063777.0,1767084449.011875,1
0,16.68,0.447023,34.93,2069066.0,1767084449.256875,1
0,12.495,0.448304,34.93,2078267.0,1767084450.026875,1
0,25.906667,0.44318,34.91,2085850.0,1767084450.516875,1
0,-7.426667,0.44318,34.89,2051157.0,1767084451.531875,1
0,22.153333,0.444461,34.89,2086644.0,1767084453.281875,1
0,57.885,0.440619,34.89,2088944.0,1767084453.526875,1
0,-28.416667,0.435495,34.91,2101423.0,1767084455.031875,1
0,9.765,0.440619,34.91,2106315.0,1767084455.521875,1
0,-42.82,0.436776,34.91,2086080.0,1767084455.766875,1
0,27.18,0.435495,34.91,2073410.0,1767084456.011875,1
0,-57.48,0.438057,34.91,2090394.0,1767084456.501875,1
0,50.063333,0.438057,34.91,2094941.0,1767084456.781875,1
0,23.62,0.435495,34.91,2099193.0,1767084457.026875,1
0,-46.04,0.434214,34.89,2086702.0,1767084458.006875,1
0,33.326667,0.434214,34.89,2081750.0,1767084458.251875,1
0,5.113333,0.434214,34.89,2089280.0,1767084458.531875,1
0,-35.19,0.436776,34.89,2090048.0,1767084458.776875,1
0,-49.986667,0.434214,34.87,2114516.0,1767084460.281875,1
0,33.91,0.430372,34.87,2122117.0,1767084460.526875,1
0,32.363333,0.435495,34.87,2129690.0,1767084461.016875,1
0,87.075,0.432933,34.87,2133659.0,1767084461.261875,1
0,-53.953333,0.434214,34.87,2136572.0,1767084461.751875,1
0,9.68,0.434214,34.87,2140358.0,1767084462.276875,1
0,19.33,0.432933,34.87,2128043.0,1767084463.256875,1
0,-49.246667,0.432933,34.87,2127854.0,1767084463.781875,1
0,18.425,0.431653,34.84,2134152.0,1767084464.271875,1
0,28.755,0.426529,34.84,2136540.0,1767084465.006875,1
0,75.935,0.42781,34.84,2124749.0,1767084467.771875,1
0,-141.73,0.422687,34.84,2120250.0,1767084468.261875,1
0,24.24,0.421406,34.84,2123221.0,1767084468.506875,1
0,32.623333,0.421406,34.84,2113006.0,1767084469.031875,1
0,22.935,0.422687,34.83,2112723.0,1767084469.276875,1
0,-46.945,0.421406,34.83,2104820.0,1767084469.521875,1
0,-190.6,0.420125,34.84,2097265.0,1767084470.256875,1
0,33.24,0.420125,34.84,2095455.0,1767084470.501875,1
0,-73.135,0.425248,34.84,2095381.0,1767084471.026875,1
0,37.795,0.422687,34.84,2077399.0,1767084472.006875,1
0,-5.513333,0.421406,34.84,2080044.0,1767084472.251875,1
0,-48.576667,0.418844,34.84,2073713.0,1767084472.531875,1
0,11.03,0.422687,34.84,2077259.0,1767084473.021875,1
0,19.05,0.418844,34.83,2075810.0,1767084473.511875,1
0,-234.195,0.415001,34.81,2073892.0,1767084474.771875,1
0,-16.095,0.417563,34.83,2072265.0,1767084475.506875,1
0,25.25,0.41372,34.83,2076246.0,1767084476.031875,1
0,34.43,0.41244,34.81,2070491.0,1767084477.256875,1
0,16.54,0.415001,34.81,2055591.0,1767084478.026875,1
0,-21.995,0.41372,34.83,2057872.0,1767084478.271875,1
0,38.015,0.415001,34.83,2071041.0,1767084478.761875,1
0,6.45,0.409878,34.83,2074559.0,1767084479.251875,1
0,31.41,0.41244,34.83,2068961.0,1767084480.021875,1
0,1.993333,0.408597,34.83,2069869.0,1767084480.266875,1
0,-0.205,0.406035,34.81,2086838.0,1767084481.526875,1
0,-54.825,0.408597,34.81,2090526.0,1767084483.276875,1
0,-46.925,0.408597,34.81,2075539.0,1767084484.011875,1
0,19.72,0.408597,34.81,2078838.0,1767084484.256875,1
0,14.613333,0.408597,34.81,2069902.0,1767084484.501875,1
0,4.86,0.403474,34.81,2074832.0,1767084484.781875,1
0,25.06,0.406035,34.81,2086265.0,1767084485.271875,1
0,-90.15,0.404754,34.81,2097549.0,1767084485.516875,1
0,-55.19,0.403474,34.79,2125973.0,1767084486.776875,1
0,6.185,0.399631,34.79,2126861.0,1767084487.021875,1
0,41.35,0.400912,34.79,2133106.0,1767084487.756875,1
0,14.116667,0.397069,34.77,2128851.0,1767084488.281875,1
0,20.025,0.39835,34.77,2128260.0,1767084488.526875,1
0,38.283333,0.399631,34.77,2130176.0,1767084489.016875,1
0,30.87,0.397069,34.77,2133335.0,1767084489.261875,1
0,-14.21,0.397069,34.77,2129664.0,1767084489.506875,1
0,-160.24,0.395788,34.79,2128433.0,1767084490.276875,1
0,26.635,0.394507,34.79,2129720.0,1767084490.521875,1
0,14.056667,0.391946,34.79,2125349.0,1767084491.501875,1
0,103.965,0.393227,34.79,2130626.0,1767084492.026875,1
0,-33.205,0.389384,34.77,2106355.0,1767084493.776875,1
0,80.12,0.389384,34.77,2107695.0,1767084494.021875,1
0,-24.23,0.391946,34.77,2105427.0,1767084494.511875,1
0,-108.785,0.389384,34.77,2110374.0,1767084494.756875,1
0,19.835,0.389384,34.75,2115900.0,1767084495.526875,1
0,24.395,0.388103,34.75,2110442.0,1767084495.771875,1
0,22.97,0.385541,34.75,2111143.0,1767084496.016875,1
0,-42.59,0.388103,34.77,2112984.0,1767084496.751875,1
0,-24.21,0.38426,34.77,2106703.0,1767084497.031875,1
0,-3.206667,0.388103,34.75,2074628.0,1767084497.766875,1
0,35.05,0.386822,34.77,2084074.0,1767084498.501875,1
0,113.886667,0.388103,34.77,2082364.0,1767084498.781875,1
0,50.7,0.386822,34.77,2086410.0,1767084499.026875,1
0,-43.906667,0.385541,34.73,2083180.0,1767084499.516875,1
0,30.315,0.385541,34.73,2089363.0,1767084500.006875,1
0,-164.32,0.380418,34.77,2096274.0,1767084501.266875,1
0,-24.885,0.380418,34.75,2082002.0,1767084503.506875,1
0,-4.356667,0.379137,34.75,2083232.0,1767084503.751875,1
0,-28.865,0.381699,34.73,2063571.0,1767084504.276875,1
0,33.71,0.380418,34.73,2075455.0,1767084504.521875,1
0,18.033333,0.377856,34.73,2074915.0,1767084504.766875,1
0,28.225,0.381699,34.73,2082534.0,1767084505.256875,1
0,-1.88,0.379137,34.73,2076631.0,1767084505.501875,1
0,-26.775,0.374014,34.75,2087332.0,1767084507.006875,1
0,-229.015,0.375294,34.73,2088984.0,1767084507.776875,1
0,6.005,0.374014,34.73,2097895.0,1767084508.756875,1
0,-23.81,0.370171,34.73,2071173.0,1767084509.001875,1
0,-12.123333,0.372733,34.73,2090942.0,1767084510.016875,1
0,6.085,0.370171,34.71,2096661.0,1767084510.261875,1
0,49.67,0.371452,34.71,2110681.0,1767084510.751875,1
0,13.636667,0.372733,34.71,2113123.0,1767084511.031875,1
0,92.26,0.375294,34.71,2132870.0,1767084512.011875,1
0,-90.49,0.363767,34.73,2143640.0,1767084514.776875,1
0,32.205,0.365047,34.71,2112425.0,1767084515.756875,1
0,-24.01,0.361205,34.71,2113333.0,1767084516.001875,1
0,81.966667,0.362486,34.68,2109953.0,1767084516.281875,1
0,-18.76,0.361205,34.68,2124816.0,1767084517.261875,1
0,38.755,0.359924,34.68,2127511.0,1767084518.276875,1
0,-41.346667,0.361205,34.68,2132908.0,1767084518.766875,1
0,-60.743333,0.357362,34.68,2142857.0,1767084519.501875,1
0,19.306667,0.362486,34.68,2150931.0,1767084519.781875,1
0,1.815,0.358643,34.68,2148561.0,1767084520.026875,1
0,79.063333,0.356081,34.66,2154188.0,1767084520.516875,1
0,-41.266667,0.359924,34.68,2151603.0,1767084521.251875,1
0,-14.83,0.356081,34.68,2151441.0,1767084521.531875,1
0,37.656667,0.358643,34.68,2108415.0,1767084522.266875,1
0,30.97,0.356081,34.68,2108598.0,1767084523.001875,1
0,0.096667,0.354801,34.68,2109222.0,1767084523.281875,1
0,-14.79,0.35352,34.68,2082485.0,1767084524.016875,1
0,10.3,0.354801,34.66,2069902.0,1767084524.751875,1
0,35.385,0.352239,34.65,2083230.0,1767084525.276875,1
0,0.28,0.354801,34.65,2078221.0,1767084525.521875,1
0,21.043333,0.350958,34.66,2086337.0,1767084526.501875,1
0,18.235,0.359924,34.65,2103956.0,1767084527.761875,1
0,-98.805,0.348396,34.65,2109964.0,1767084528.006875,1
0,-6.215,0.347115,34.65,2115399.0,1767084529.021875,1
0,28.856667,0.345834,34.65,2118992.0,1767084529.266875,1
0,85.96,0.344554,34.65,2117769.0,1767084529.511875,1
0,-2.05,0.343273,34.65,2116473.0,1767084529.756875,1
0,-50.043333,0.345834,34.65,2113021.0,1767084530.281875,1
0,29.895,0.341992,34.65,2116874.0,1767084530.771875,1
0,-48.666667,0.345834,34.65,2113872.0,1767084531.016875,1
0,34.36,0.340711,34.65,2102557.0,1767084533.011875,1
0,-116.56,0.341992,34.65,2121240.0,1767084534.516875,1
0,-22.92,0.341992,34.65,2119471.0,1767084534.761875,1
0,16.1,0.341992,34.65,2124290.0,1767084535.006875,1
0,12.436667,0.338149,34.63,2125764.0,1767084535.251875,1
0,36.11,0.340711,34.63,2132736.0,1767084537.001875,1
0,4.17,0.33943,34.63,2116800.0,1767084537.281875,1
0,-2.743333,0.33943,34.63,2127749.0,1767084538.016875,1
0,17.455,0.33943,34.63,2128772.0,1767084538.261875,1
0,18.11,0.334307,34.63,2134032.0,1767084539.031875,1
0,-6.596667,0.335588,34.63,2110896.0,1767084539.766875,1
0,-34.31,0.333026,34.63,2110632.0,1767084540.011875,1
0,-1.135,0.331745,34.61,2112439.0,1767084540.256875,1
0,11.69,0.334307,34.61,2084088.0,1767084541.761875,1
0,75.435,0.334307,34.61,2097296.0,1767084543.021875,1
0,24.96,0.330464,34.63,2106619.0,1767084543.266875,1
0,2.565,0.333026,34.63,2119654.0,1767084543.756875,1
0,0.086667,0.333026,34.63,2127074.0,1767084544.001875,1
0,35.285,0.327902,34.59,2120407.0,1767084544.526875,1
0,2.006667,0.329183,34.59,2139438.0,1767084545.016875,1
0,-50.143333,0.327902,34.57,2152509.0,1767084546.031875,1
0,-32.855,0.329183,34.59,2170337.0,1767084546.521875,1
0,-32.833333,0.325341,34.59,2163575.0,1767084547.501875,1
0,-10.26,0.325341,34.59,2167669.0,1767084548.026875,1
0,45.49,0.321498,34.57,2170348.0,1767084548.271875,1
0,44.803333,0.321498,34.57,2169055.0,1767084548.516875,1
0,-3.645,0.325341,34.57,2169298.0,1767084549.006875,1
0,-22.713333,0.321498,34.59,2167625.0,1767084549.251875,1
0,-2.4,0.320217,34.59,2169147.0,1767084549.531875,1
0,26.315,0.320217,34.59,2144415.0,1767084551.526875,1
0,10.58,0.317655,34.59,2113741.0,1767084551.771875,1
0,50.71,0.318936,34.59,2113383.0,1767084552.261875,1
0,-51.146667,0.317655,34.59,2110298.0,1767084552.751875,1
0,35.893333,0.317655,34.59,2113034.0,1767084553.766875,1
0,19.905,0.315094,34.57,2108867.0,1767084554.256875,1
0,-1.31,0.316374,34.57,2090688.0,1767084554.781875,1
0,-10.066667,0.313813,34.57,2090278.0,1767084556.251875,1
0,-37.823333,0.311251,34.57,2067512.0,1767084556.531875,1
0,12.565,0.30997,34.57,2072300.0,1767084556.776875,1
0,-7.94,0.311251,34.57,2055584.0,1767084557.021875,1
0,26.066667,0.30997,34.55,2067518.0,1767084558.281875,1
0,-38.25,0.311251,34.55,2062641.0,1767084558.526875,1
0,117.836667,0.30997,34.55,2070469.0,1767084559.751875,1
0,21.656667,0.308689,34.55,2070428.0,1767084560.031875,1
0,14.68,0.308689,34.55,2065763.0,1767084560.766875,1
0,51.125,0.306128,34.55,2070222.0,1767084561.011875,1
0,131.336667,0.303566,34.55,2067253.0,1767084561.781875,1
0,-15.58,0.303566,34.55,2068577.0,1767084562.761875,1
0,-3.113333,0.303566,34.55,2067796.0,1767084563.251875,1
0,17.93,0.301004,34.55,2069614.0,1767084564.021875,1
0,29.04,0.303566,34.53,2074919.0,1767084565.001875,1
0,-41.576667,0.301004,34.55,2073450.0,1767084565.281875,1
0,47.25,0.299723,34.55,2076900.0,1767084565.526875,1
0,35.775,0.302285,34.55,2065637.0,1767084565.771875,1
0,4.423333,0.302285,34.55,2035220.0,1767084566.016875,1
0,35.7,0.298442,34.53,2051475.0,1767084566.506875,1
0,14.585,0.297161,34.55,2069806.0,1767084568.011875,1
0,20.536667,0.299723,34.53,2068776.0,1767084568.501875,1
0,-21.69,0.297161,34.53,2089135.0,1767084569.271875,1
0,-38.153333,0.297161,34.53,2094623.0,1767084569.516875,1
0,7.615,0.295881,34.53,2105180.0,1767084570.006875,1
0,36.26,0.297161,34.53,2122130.0,1767084570.776875,1
0,62.62,0.295881,34.53,2117861.0,1767084571.021875,1
0,105.446667,0.2946,34.5,2116035.0,1767084571.266875,1
0,-24.065,0.292038,34.5,2118454.0,1767084571.511875,1
0,-165.755,0.295881,34.5,2115034.0,1767084571.756875,1
0,-14.123333,0.295881,34.5,2117908.0,1767084572.001875,1
0,49.37,0.2946,34.53,2114532.0,1767084572.281875,1
0,-14.663333,0.297161,34.53,2112431.0,1767084573.016875,1
0,-4.555,0.297161,34.5,2122942.0,1767084574.276875,1
0,5.685,0.2946,34.5,2117687.0,1767084575.011875,1
0,-44.115,0.295881,34.49,2120322.0,1767084575.256875,1
0,119.096667,0.295881,34.49,2125531.0,1767084575.501875,1
0,-0.205,0.293319,34.5,2147212.0,1767084576.271875,1
0,-26.046667,0.292038,34.5,2146005.0,1767084576.516875,1
0,-51.325,0.290757,34.49,2144501.0,1767084578.756875,1
0,6.373333,0.292038,34.49,2157400.0,1767084579.281875,1
0,42.7,0.288195,34.49,2159352.0,1767084579.771875,1
0,1.95,0.288195,34.49,2163418.0,1767084580.016875,1
0,-54.48,0.290757,34.47,2154607.0,1767084580.261875,1
0,18.105,0.292038,34.47,2152906.0,1767084580.506875,1
0,-22.013333,0.286914,34.47,2138143.0,1767084581.031875,1
0,34.815,0.286914,34.49,2135000.0,1767084581.276875,1
0,-142.645,0.288195,34.49,2135557.0,1767084582.011875,1
0,-15.32,0.285634,34.49,2130099.0,1767084582.501875,1
0,49.123333,0.288195,34.49,2108513.0,1767084582.781875,1
0,-23.113333,0.286914,34.49,2103550.0,1767084583.516875,1
0,48.35,0.290757,34.49,2122638.0,1767084584.006875,1
0,-12.793333,0.290757,34.49,2123205.0,1767084584.251875,1
0,-47.386667,0.289476,34.49,2128535.0,1767084584.531875,1
0,-17.47,0.286914,34.49,2105192.0,1767084585.021875,1
0,12.446667,0.289476,34.49,2104246.0,1767084585.266875,1
0,25.31,0.299723,34.49,2109579.0,1767084585.511875,1
0,4.005,0.285634,34.49,2108620.0,1767084585.756875,1
0,-0.463333,0.283072,34.47,2100710.0,1767084587.016875,1
0,31.693333,0.284353,34.49,2064736.0,1767084587.751875,1
0,22.235,0.285634,34.47,2063908.0,1767084589.011875,1
0,1.1,0.285634,34.45,2066422.0,1767084589.256875,1
0,32.525,0.284353,34.45,2073526.0,1767084590.026875,1
0,98.32,0.281791,34.47,2083883.0,1767084590.516875,1
0,8.15,0.281791,34.45,2097643.0,1767084593.001875,1
0,10.14,0.284353,34.45,2061083.0,1767084593.771875,1
0,-25.543333,0.281791,34.45,2058276.0,1767084594.016875,1
0,-233.84,0.28051,34.47,2063612.0,1767084594.751875,1
0,61.29,0.28051,34.45,2081946.0,1767084596.011875,1
0,-99.773333,0.279229,34.47,2095875.0,1767084596.781875,1
0,-50.295,0.279229,34.47,2097296.0,1767084597.026875,1
0,18.2,0.276668,34.45,2086145.0,1767084598.006875,1
0,25.963333,0.277948,34.43,2096935.0,1767084598.531875,1
0,-168.825,0.275387,34.43,2110029.0,1767084599.021875,1
0,-48.043333,0.288195,34.45,2111731.0,1767084599.266875,1
0,1.03,0.276668,34.43,2071365.0,1767084600.281875,1
0,52.21,0.275387,34.43,2073786.0,1767084600.526875,1
0,32.075,0.276668,34.43,2104585.0,1767084601.261875,1
0,-32.525,0.274106,34.43,2106171.0,1767084601.506875,1
0,5.23,0.275387,34.43,2112429.0,1767084601.751875,1
0,-26.035,0.276668,34.43,2118376.0,1767084602.276875,1
0,37.32,0.274106,34.43,2129741.0,1767084602.766875,1
0,46.885,0.277948,34.43,2131778.0,1767084603.011875,1
0,59.64,0.277948,34.43,2138508.0,1767084603.256875,1
0,-148.626667,0.274106,34.43,2137223.0,1767084603.501875,1
0,-46.023333,0.274106,34.43,2140717.0,1767084603.781875,1
0,0.395,0.276668,34.43,2130123.0,1767084604.271875,1
0,-14.16,0.274106,34.43,2115905.0,1767084605.006875,1
0,34.8,0.276668,34.43,2118974.0,1767084605.251875,1
0,24.273333,0.277948,34.43,2120312.0,1767084605.531875,1
0,16.936667,0.276668,34.41,2100659.0,1767084606.266875,1
0,13.53,0.276668,34.41,2103756.0,1767084607.526875,1
0,91.536667,0.276668,34.41,2106210.0,1767084609.031875,1
0,1.41,0.274106,34.41,2102142.0,1767084609.276875,1
0,-28.16,0.275387,34.41,2106017.0,1767084610.011875,1
0,-17.123333,0.272825,34.41,2055345.0,1767084610.781875,1
0,-14.2,0.275387,34.39,2064195.0,1767084611.271875,1
0,5.136667,0.271544,34.39,2070658.0,1767084611.516875,1
0,19.443333,0.275387,34.41,2072108.0,1767084612.251875,1
0,-15.66,0.274106,34.41,2057621.0,1767084612.531875,1
0,60.23,0.271544,34.41,2037829.0,1767084613.021875,1
0,-150.643333,0.274106,34.39,2076190.0,1767084614.281875,1
0,40.94,0.271544,34.41,2054537.0,1767084615.261875,1
0,-34.753333,0.272825,34.41,2069559.0,1767084615.751875,1
0,25.393333,0.274106,34.39,2094296.0,1767084616.766875,1
0,-9.03,0.274106,34.39,2083604.0,1767084617.011875,1
0,25.27,0.270263,34.41,2069998.0,1767084617.781875,1
0,15.705,0.270263,34.39,2090102.0,1767084618.271875,1
0,-19.986667,0.267701,34.39,2090001.0,1767084618.516875,1
0,-8.755,0.270263,34.39,2096328.0,1767084619.006875,1
0,-40.346667,0.268982,34.39,2094316.0,1767084619.251875,1
0,10.633333,0.270263,34.39,2101777.0,1767084619.531875,1
0,-171.5,0.267701,34.39,2103714.0,1767084620.756875,1
0,-61.626667,0.267701,34.39,2103277.0,1767084621.001875,1
0,-62.96,0.281791,34.37,2098596.0,1767084621.281875,1
0,26.32,0.267701,34.37,2103748.0,1767084621.771875,1
0,97.085,0.26514,34.39,2106186.0,1767084622.261875,1
0,-15.426667,0.268982,34.39,2110041.0,1767084622.751875,1
0,-127.976667,0.266421,34.39,2116746.0,1767084623.031875,1
0,42.166667,0.26514,34.37,2106313.0,1767084624.501875,1
0,-111.755,0.268982,34.39,2116178.0,1767084625.271875,1
0,-25.936667,0.268982,34.39,2092740.0,1767084626.251875,1
0,45.136667,0.267701,34.39,2094270.0,1767084626.531875,1
0,6.82,0.26514,34.39,2103246.0,1767084627.021875,1
0,71.54,0.26514,34.37,2108286.0,1767084627.266875,1
0,-32.086667,0.263859,34.37,2108458.0,1767084629.016875,1
0,36.175,0.263859,34.39,2110918.0,1767084629.261875,1
0,15.5,0.26514,34.34,2119342.0,1767084630.276875,1
0,10.88,0.266421,34.34,2117525.0,1767084631.011875,1
0,-10.55,0.26514,34.39,2118022.0,1767084631.256875,1
0,14.933333,0.262578,34.39,2120135.0,1767084631.501875,1
0,25.06,0.266421,34.39,2114172.0,1767084632.026875,1
0,-48.033333,0.262578,34.37,2103332.0,1767084632.516875,1
0,23.29,0.262578,34.37,2104697.0,1767084632.761875,1
0,24.386667,0.26514,34.34,2092676.0,1767084633.531875,1
0,42.865,0.262578,34.37,2084420.0,1767084634.756875,1
0,85.683333,0.262578,34.34,2089317.0,1767084635.281875,1
0,-13.61,0.266421,34.34,2095494.0,1767084635.526875,1
0,-84.99,0.267701,34.34,2098748.0,1767084635.771875,1
0,5.05,0.263859,34.37,2087874.0,1767084636.506875,1
0,28.273333,0.26514,34.37,2090739.0,1767084637.031875,1
0,5.923333,0.266421,34.37,2087378.0,1767084637.766875,1
0,-30.975,0.263859,34.37,2086708.0,1767084638.011875,1
0,28.73,0.26514,34.39,2091522.0,1767084638.256875,1
0,20.53,0.261297,34.39,2068703.0,1767084638.781875,1
0,58.775,0.263859,34.39,2086151.0,1767084639.026875,1
0,55.823333,0.262578,34.37,2092627.0,1767084639.516875,1
0,46.4,0.262578,34.37,2098468.0,1767084639.761875,1
0,-86.8,0.26514,34.34,2103171.0,1767084640.251875,1
0,1.266667,0.26514,34.34,2104626.0,1767084640.531875,1
0,29.825,0.261297,34.34,2082427.0,1767084641.021875,1
0,16.846667,0.263859,34.37,2087989.0,1767084641.266875,1
0,50.875,0.263859,34.37,2105878.0,1767084641.756875,1
0,30.353333,0.262578,34.37,2104162.0,1767084642.001875,1
0,-61.21,0.263859,34.34,2098573.0,1767084642.771875,1
0,-3.933333,0.262578,34.34,2101395.0,1767084643.016875,1
0,14.625,0.260016,34.34,2110633.0,1767084643.261875,1
0,11.575,0.262578,34.34,2114174.0,1767084644.276875,1
0,47.645,0.260016,34.34,2102938.0,1767084644.521875,1
0,-10.04,0.26514,34.33,2051304.0,1767084645.256875,1
0,-105.573333,0.262578,34.33,2049318.0,1767084645.781875,1
0,27.68,0.263859,34.33,2065742.0,1767084646.026875,1
0,90.96,0.263859,34.33,2057312.0,1767084646.516875,1
0,-20.72,0.262578,34.33,2049127.0,1767084646.761875,1
0,10.2,0.260016,34.33,2036707.0,1767084647.006875,1
0,-1.366667,0.262578,34.34,2013910.0,1767084647.531875,1
0,20.22,0.260016,34.33,1995857.0,1767084648.266875,1
0,43.285,0.262578,34.33,1984786.0,1767084648.756875,1
0,12.753333,0.256174,34.33,1971146.0,1767084649.281875,1
10,-65.68,0.268998,34.77,1738217.5,1721466928.769478,1
10,-11.3475,0.308708,34.77,1773100.0,1721466929.256435,1
10,-37.9525,0.288213,34.77,1794910.0,1721466929.560783,1
10,-479.4025,0.277965,34.77,1829982.0,1721466930.291217,1
10,-138.995,0.276684,34.77,1839604.0,1721466930.534696,1
10,214.875,0.272841,34.77,1862937.5,1721466931.021652,1
10,62.0675,0.274122,34.75,1870428.0,1721466931.752087,1
10,-39.7775,0.272841,34.75,1872188.5,1721466932.299913,1
10,66.645,0.274122,34.75,1913070.5,1721466932.543391,1
10,-1.4025,0.272841,34.75,1922118.5,1721466932.78687,1
10,-12.42,0.274122,34.73,1897545.0,1721466933.273826,1
10,59.7025,0.277965,34.73,1895557.0,1721466933.760783,1
10,-55.165,0.275403,34.75,1905688.0,1721466934.308609,1
10,-31.92,0.277965,34.75,1904046.0,1721466935.039043,1
10,13.485,0.277965,34.77,1901483.0,1721466935.282521,1
10,-24.2275,0.277965,34.77,1898543.0,1721466935.769478,1
10,31.375,0.279246,34.77,1896334.5,1721466936.012957,1
10,-29.83,0.275403,34.75,1874675.0,1721466936.560783,1
10,0.0775,0.272841,34.75,1867653.0,1721466936.804261,1
10,-39.23,0.275403,34.77,1843609.0,1721466937.291217,1
10,-45.8525,0.275403,34.77,1836198.5,1721466937.534696,1
10,40.755,0.272841,34.77,1837062.0,1721466938.021652,1
10,58.423333,0.276684,34.73,1814601.0,1721466938.26513,1
10,78.38,0.279246,34.73,1807026.5,1721466938.508609,1
10,-9.87,0.275403,34.73,1810316.0,1721466938.752087,1
10,-96.9925,0.276684,34.73,1799136.5,1721466939.056435,1
10,-9.845,0.279246,34.73,1802696.0,1721466939.299913,1
10,-19.01,0.277965,34.73,1810575.0,1721466939.543391,1
10,24.765,0.277965,34.73,1807305.0,1721466940.517304,1
10,37.0775,0.279246,34.73,1813621.0,1721466940.760783,1
10,-21.58,0.275403,34.73,1813081.0,1721466941.308609,1
10,16.175,0.277965,34.75,1854094.0,1721466942.282521,1
10,14.195,0.276684,34.75,1858955.0,1721466942.526,1
10,-5.2775,0.297179,34.75,1853547.0,1721466943.012957,1
10,-37.28,0.283089,34.75,1844275.5,1721466943.804261,1
10,8.245,0.286932,34.73,1850304.0,1721466944.291217,1
10,-24.6925,0.285651,34.73,1838048.0,1721466944.534696,1
10,22.82,0.28437,34.73,1847978.0,1721466944.778174,1
10,13.8525,0.281808,34.73,1856932.5,1721466945.021652,1
10,30.155,0.285651,34.73,1843339.0,1721466945.508609,1
10,31.835,0.283089,34.73,1829483.0,1721466946.299913,1
10,-7.325,0.28437,34.73,1806436.5,1721466948.004261,1
10,-33.765,0.281808,34.71,1796320.0,1721466948.308609,1
10,-35.2025,0.283089,34.71,1779120.0,1721466950.560783,1
10,19.185,0.280527,34.71,1776101.0,1721466951.047739,1
10,-49.0575,0.280527,34.71,1771030.0,1721466952.021652,1
10,-89.526667,0.281808,34.73,1750979.0,1721466952.26513,1
10,53.2825,0.281808,34.73,1747253.5,1721466952.508609,1
10,33.335,0.283089,34.73,1750821.5,1721466952.752087,1
10,46.8075,0.280527,34.71,1721970.0,1721466953.299913,1
10,33.06,0.279246,34.71,1725960.5,1721466953.543391,1
10,-36.0525,0.281808,34.71,1712178.0,1721466953.78687,1
10,-31.2175,0.283089,34.73,1749767.0,1721466954.517304,1
10,9.325,0.295898,34.73,1702543.0,1721466955.552087,1
10,-79.12,0.293336,34.71,1689157.5,1721466956.282521,1
10,-28.2875,0.289494,34.71,1705724.0,1721466957.012957,1
10,22.585,0.289494,34.71,1693316.0,1721466957.256435,1
10,3.185,0.293336,34.71,1686627.0,1721466957.804261,1
10,-39.7375,0.290775,34.71,1684518.0,1721466958.778174,1
10,37.1175,0.292055,34.71,1683365.5,1721466959.021652,1
10,35.53,0.292055,34.71,1691239.0,1721466959.26513,1
10,-33.49,0.288213,34.71,1688066.0,1721466959.752087,1
10,42.345,0.293336,34.71,1696725.0,1721466960.056435,1
10,-48.5025,0.293336,34.71,1710737.0,1721466960.299913,1
10,-75.4875,0.290775,34.71,1710050.5,1721466960.543391,1
10,21.23,0.286932,34.71,1719813.0,1721466961.030348,1
10,-22.265,0.303584,34.71,1729030.0,1721466962.308609,1
10,33.81,0.289494,34.71,1743402.0,1721466962.552087,1
10,-22.84,0.292055,34.71,1757723.0,1721466962.795565,1
10,-30.805,0.292055,34.68,1738201.5,1721466963.769478,1
10,89.85,0.290775,34.68,1735172.0,1721466964.012957,1
10,-19.7075,0.290775,34.68,1738568.0,1721466964.256435,1
10,-42.2125,0.289494,34.68,1730411.0,1721466964.560783,1
10,47.9375,0.304865,34.68,1731750.0,1721466965.047739,1
10,-57.425,0.299741,34.68,1725760.5,1721466965.534696,1
10,46.24,0.299741,34.68,1724453.5,1721466965.778174,1
10,22.3125,0.301022,34.68,1730367.0,1721466966.021652,1
10,-42.24,0.303584,34.71,1728354.0,1721466966.26513,1
10,33.325,0.302303,34.71,1728142.0,1721466966.508609,1
10,28.9275,0.29846,34.71,1741908.0,1721466966.752087,1
10,-39.0125,0.301022,34.71,1757520.0,1721466967.056435,1
10,32.775,0.302303,34.68,1747932.0,1721466967.299913,1
10,31.04,0.303584,34.68,1754816.0,1721466967.543391,1
10,47.125,0.306146,34.68,1750114.0,1721466968.273826,1
10,-52.715,0.31127,34.68,1758761.5,1721466968.517304,1
10,-99.4225,0.329203,34.68,1744051.0,1721466968.760783,1
10,35.655,0.322798,34.68,1740584.0,1721466969.004261,1
10,5.07,0.317674,34.68,1745695.5,1721466969.308609,1
10,59.613333,0.315113,34.68,1726750.0,1721466969.795565,1
10,54.1975,0.315113,34.68,1733726.0,1721466970.039043,1
10,-80.0225,0.309989,34.71,1716848.0,1721466970.526,1
10,49.7975,0.313832,34.71,1723355.0,1721466970.769478,1
10,43.57,0.307427,34.66,1750818.0,1721466971.560783,1
10,27.365,0.309989,34.66,1754079.0,1721466971.804261,1
10,-29.555,0.31127,34.66,1753362.0,1721466972.047739,1
10,35.31,0.31127,34.68,1795353.5,1721466973.508609,1
10,-71.3275,0.31127,34.68,1762467.0,1721466974.056435,1
10,46.2075,0.312551,34.66,1758719.0,1721466974.299913,1
10,36.37,0.315113,34.66,1764049.5,1721466974.543391,1
10,-96.7525,0.315113,34.66,1747523.0,1721466974.78687,1
10,-77.185,0.317674,34.68,1736594.0,1721466975.760783,1
10,45.9225,0.318955,34.68,1736612.0,1721466976.004261,1
10,-1.515,0.318955,34.68,1737710.0,1721466977.039043,1
10,-67.3225,0.317674,34.66,1744250.0,1721466977.282521,1
10,35.0325,0.316393,34.66,1744405.5,1721466978.012957,1
10,-34.345,0.315113,34.66,1733630.5,1721466978.256435,1
10,-21.2775,0.313832,34.66,1745192.0,1721466979.047739,1
10,16.7475,0.313832,34.66,1745723.0,1721466979.778174,1
10,-35.9125,0.31127,34.66,1736609.0,1721466980.021652,1
10,17.095,0.308708,34.66,1741550.0,1721466981.299913,1
10,15.23,0.313832,34.66,1751431.0,1721466981.543391,1
10,-24.105,0.312551,34.66,1747814.0,1721466981.78687,1
10,19.5375,0.31127,34.65,1755218.5,1721466982.517304,1
10,-27.0,0.31127,34.65,1741540.5,1721466982.760783,1
10,60.19,0.31127,34.65,1742534.5,1721466983.004261,1
10,-15.685,0.307427,34.65,1752774.0,1721466983.552087,1
10,-75.41,0.309989,34.65,1745066.0,1721466983.795565,1
10,40.1325,0.31127,34.65,1747125.0,1721466984.039043,1
10,65.93,0.309989,34.65,1742916.0,1721466984.769478,1
10,29.95,0.309989,34.65,1749402.0,1721466985.012957,1
10,-44.9425,0.309989,34.63,1741538.5,1721466985.256435,1
10,37.4225,0.306146,34.63,1754847.5,1721466985.804261,1
10,-16.3275,0.309989,34.63,1744126.0,1721466986.047739,1
10,43.2375,0.309989,34.65,1729549.5,1721466986.534696,1
10,-43.3725,0.306146,34.65,1725330.0,1721466987.021652,1
10,29.646667,0.307427,34.65,1725214.0,1721466987.26513,1
10,-79.9925,0.307427,34.65,1742393.5,1721466988.056435,1
10,30.03,0.31127,34.65,1750145.0,1721466988.543391,1
10,-35.2975,0.31127,34.65,1731130.0,1721466988.78687,1
10,25.565,0.307427,34.65,1741876.5,1721466989.273826,1
10,3.94,0.307427,34.65,1754982.0,1721466990.308609,1
10,-76.05,0.309989,34.65,1743972.5,1721466990.552087,1
10,40.235,0.308708,34.63,1756809.0,1721466991.769478,1
10,-54.2225,0.31127,34.65,1756148.0,1721466992.256435,1
10,14.625,0.308708,34.63,1782604.0,1721466993.778174,1
10,-55.1525,0.308708,34.63,1806148.0,1721466994.021652,1
10,35.053333,0.309989,34.61,1784460.0,1721466994.26513,1
10,53.11,0.307427,34.61,1761827.0,1721466995.056435,1
10,-29.645,0.309989,34.61,1765075.0,1721466995.543391,1
10,-26.76,0.31127,34.61,1755326.5,1721466995.78687,1
10,2.5875,0.307427,34.63,1755153.0,1721466996.273826,1
10,-60.7875,0.312551,34.63,1686446.0,1721466998.039043,1
10,4.7925,0.31127,34.61,1685416.0,1721466998.769478,1
10,63.5075,0.313832,34.63,1662352.5,1721466999.256435,1
10,-105.715,0.309989,34.63,1643183.0,1721466999.804261,1
10,-94.7725,0.315113,34.61,1620049.0,1721467001.508609,1
10,1.39,0.31127,34.61,1634888.0,1721467002.056435,1
10,-6.795,0.312551,34.63,1630134.5,1721467003.273826,1
10,54.95,0.309989,34.63,1644981.5,1721467003.517304,1
10,8.4125,0.31127,34.63,1650321.0,1721467003.760783,1
10,66.9675,0.315113,34.59,1656569.5,1721467004.308609,1
10,50.2325,0.313832,34.59,1669619.0,1721467005.039043,1
10,-50.7775,0.315113,34.61,1674559.0,1721467005.526,1
10,40.16,0.313832,34.61,1691316.0,1721467006.012957,1
10,19.5525,0.313832,34.59,1690615.0,1721467006.560783,1
10,29.3075,0.31127,34.61,1690386.5,1721467007.291217,1
10,37.7525,0.315113,34.61,1696827.0,1721467007.534696,1
10,-34.9775,0.316393,34.61,1695861.0,1721467007.778174,1
10,-21.17,0.31127,34.57,1715363.0,1721467009.299913,1
10,-76.415,0.312551,34.57,1700854.0,1721467009.543391,1
10,14.26,0.316393,34.57,1721861.0,1721467010.030348,1
10,-35.845,0.312551,34.61,1722215.0,1721467010.760783,1
10,-56.98,0.315113,34.61,1700167.0,1721467011.004261,1
10,50.8175,0.317674,34.61,1708672.0,1721467011.552087,1
10,8.006667,0.329203,34.61,1715617.0,1721467011.795565,1
10,92.335,0.315113,34.59,1713397.5,1721467012.282521,1
10,1.875,0.315113,34.59,1736049.0,1721467014.291217,1
10,56.1175,0.318955,34.59,1737585.0,1721467014.778174,1
10,19.015,0.317674,34.59,1746473.0,1721467015.021652,1
10,35.19,0.318955,34.59,1718850.0,1721467015.752087,1
10,16.2975,0.318955,34.59,1703144.0,1721467016.299913,1
10,30.065,0.315113,34.59,1712657.5,1721467016.543391,1
10,-57.9575,0.315113,34.59,1693294.0,1721467016.78687,1
10,15.015,0.318955,34.59,1695627.0,1721467017.273826,1
10,78.7375,0.321517,34.57,1682933.0,1721467018.552087,1
10,43.403333,0.317674,34.57,1695716.0,1721467018.795565,1
10,-50.5125,0.317674,34.57,1680829.0,1721467019.039043,1
10,-8.6125,0.317674,34.59,1679026.5,1721467019.282521,1
10,-1.545,0.320236,34.59,1702470.0,1721467019.769478,1
10,-88.6425,0.320236,34.59,1690165.0,1721467020.012957,1
10,61.8175,0.321517,34.59,1696006.5,1721467020.256435,1
10,-81.0475,0.324079,34.59,1707446.0,1721467020.804261,1
10,61.1425,0.324079,34.59,1705461.5,1721467021.047739,1
10,42.5575,0.324079,34.59,1720184.0,1721467021.291217,1
10,-21.7425,0.32536,34.59,1733767.0,1721467021.534696,1
10,12.4125,0.326641,34.59,1737411.0,1721467022.021652,1
10,-31.3525,0.327922,34.59,1759228.0,1721467023.056435,1
10,58.3775,0.324079,34.57,1746343.0,1721467023.543391,1
10,-24.67,0.324079,34.57,1754901.0,1721467023.78687,1
10,-36.06,0.326641,34.57,1736565.0,1721467024.030348,1
10,47.4325,0.326641,34.57,1737732.0,1721467024.273826,1
10,16.435,0.327922,34.57,1695583.0,1721467025.308609,1
10,11.3675,0.324079,34.57,1690177.0,1721467027.012957,1
10,102.2975,0.324079,34.57,1672902.0,1721467027.560783,1
10,51.27,0.324079,34.57,1684745.0,1721467027.804261,1
10,-41.9825,0.324079,34.57,1678514.0,1721467028.047739,1
10,49.9675,0.321517,34.57,1688174.0,1721467028.534696,1
10,-39.91,0.320236,34.57,1706345.0,1721467029.752087,1
10,-16.72,0.322798,34.57,1720456.5,1721467030.056435,1
10,-98.905,0.322798,34.57,1735765.0,1721467030.78687,1
10,-1.41,0.324079,34.55,1761711.0,1721467031.273826,1
10,-91.8225,0.321517,34.55,1754993.0,1721467031.517304,1
10,47.06,0.324079,34.55,1756059.0,1721467032.552087,1
10,-9.51,0.318955,34.55,1751293.0,1721467033.039043,1
10,-33.4425,0.320236,34.57,1755830.0,1721467033.526,1
10,-84.5075,0.321517,34.57,1734028.5,1721467033.769478,1
10,8.3725,0.317674,34.53,1731866.0,1721467034.256435,1
10,-78.2325,0.318955,34.53,1707370.0,1721467034.560783,1
10,49.07,0.317674,34.53,1692598.5,1721467035.534696,1
10,-63.4025,0.320236,34.53,1688250.0,1721467036.021652,1
10,74.813333,0.318955,34.55,1676866.0,1721467038.030348,1
10,30.3725,0.317674,34.55,1689311.0,1721467038.273826,1
10,94.4275,0.322798,34.55,1686219.5,1721467038.760783,1
10,-74.235,0.318955,34.53,1692917.0,1721467039.308609,1
10,51.48,0.318955,34.53,1694666.0,1721467039.552087,1
10,-42.45,0.321517,34.53,1715326.0,1721467040.039043,1
10,-85.475,0.318955,34.53,1719629.5,1721467040.769478,1
10,49.24,0.322798,34.53,1705019.0,1721467041.012957,1
10,23.1575,0.322798,34.53,1708772.0,1721467041.256435,1
10,-115.575,0.320236,34.53,1706833.0,1721467041.560783,1
10,16.215,0.336889,34.53,1713342.5,1721467042.047739,1
10,26.7125,0.321517,34.53,1713672.0,1721467042.778174,1
10,77.73,0.32536,34.5,1700237.0,1721467043.26513,1
10,-86.4025,0.326641,34.5,1707353.5,1721467043.752087,1
10,111.7725,0.322798,34.5,1706457.5,1721467044.056435,1
10,-22.685,0.32536,34.5,1716276.0,1721467044.299913,1
10,-161.155,0.32536,34.5,1707687.0,1721467044.543391,1
10,106.2575,0.326641,34.5,1710570.5,1721467044.78687,1
10,-145.7325,0.324079,34.5,1711684.5,1721467045.273826,1
10,25.2775,0.32536,34.5,1723721.0,1721467045.760783,1
10,36.1075,0.324079,34.53,1730455.5,1721467046.552087,1
10,-74.793333,0.324079,34.53,1721431.5,1721467046.795565,1
10,32.9125,0.326641,34.53,1726717.0,1721467047.039043,1
10,-2.07,0.329203,34.5,1739229.5,1721467047.282521,1
10,-96.03,0.329203,34.5,1727879.0,1721467047.526,1
10,65.74,0.326641,34.5,1731349.5,1721467047.769478,1
10,3.84,0.326641,34.5,1741088.0,1721467048.012957,1
10,47.67,0.330484,34.5,1736643.0,1721467048.560783,1
10,-36.685,0.327922,34.5,1736807.5,1721467048.804261,1
10,27.9825,0.329203,34.53,1750923.0,1721467049.291217,1
10,-0.26,0.330484,34.53,1757478.0,1721467049.778174,1
10,32.035,0.327922,34.53,1762192.0,1721467050.021652,1
10,42.865,0.329203,34.5,1748931.0,1721467050.508609,1
10,29.3675,0.329203,34.5,1752388.0,1721467050.752087,1
10,-92.07,0.330484,34.5,1741455.0,1721467051.056435,1
10,-3.8875,0.330484,34.53,1769729.0,1721467051.543391,1
10,58.36,0.330484,34.49,1730233.5,1721467052.760783,1
10,-43.086667,0.331765,34.5,1707816.0,1721467053.795565,1
10,10.6225,0.331765,34.5,1702583.0,1721467054.039043,1
10,63.9075,0.331765,34.5,1730256.0,1721467055.012957,1
10,18.3675,0.335608,34.49,1726105.0,1721467056.047739,1
10,-69.9525,0.331765,34.5,1712977.5,1721467056.291217,1
10,82.4275,0.331765,34.5,1712316.0,1721467056.534696,1
10,34.63,0.336889,34.5,1716668.5,1721467056.778174,1
10,-47.526667,0.33817,34.49,1736687.5,1721467057.26513,1
10,51.4725,0.335608,34.49,1744976.0,1721467057.508609,1
10,45.15,0.334327,34.49,1769265.0,1721467059.030348,1
10,-6.7425,0.335608,34.49,1782799.0,1721467059.273826,1
10,-87.115,0.335608,34.49,1770485.0,1721467059.517304,1
10,86.0175,0.336889,34.49,1777081.0,1721467059.760783,1
10,54.07,0.335608,34.47,1818786.0,1721467060.552087,1
10,19.92,0.345855,34.47,1795218.5,1721467061.526,1
10,-46.39,0.348417,34.47,1793867.0,1721467061.769478,1
10,60.8575,0.350979,34.47,1771178.0,1721467062.012957,1
10,28.53,0.350979,34.5,1770317.0,1721467062.256435,1
10,77.565,0.350979,34.5,1783081.0,1721467062.804261,1
10,32.5775,0.36635,34.49,1760271.0,1721467063.534696,1
10,-21.5225,0.36635,34.49,1767091.0,1721467064.021652,1
10,44.7325,0.371474,34.47,1761696.0,1721467064.508609,1
10,-0.215,0.372755,34.47,1777401.0,1721467064.752087,1
10,55.813333,0.375317,34.47,1752127.0,1721467066.030348,1
10,61.82,0.386845,34.49,1794381.0,1721467066.760783,1
10,19.9725,0.371474,34.49,1787620.0,1721467067.004261,1
10,-65.815,0.371474,34.47,1772532.0,1721467067.308609,1
10,-82.45,0.36635,34.47,1750762.5,1721467068.039043,1
10,56.735,0.367631,34.47,1734646.0,1721467068.282521,1
10,-37.565,0.368912,34.47,1728335.5,1721467068.769478,1
10,20.3625,0.365069,34.47,1726248.0,1721467069.012957,1
10,-48.975,0.36635,34.47,1727938.0,1721467069.560783,1
10,64.7825,0.371474,34.47,1721499.0,1721467069.804261,1
10,24.2825,0.368912,34.47,1732685.5,1721467070.047739,1
10,50.4225,0.367631,34.47,1711943.0,1721467070.778174,1
10,-19.045,0.367631,34.47,1711410.0,1721467071.021652,1
10,-21.806667,0.365069,34.47,1705996.0,1721467071.26513,1
10,73.0475,0.363788,34.47,1710426.0,1721467071.508609,1
10,7.5475,0.365069,34.47,1704331.5,1721467072.543391,1
10,-117.6175,0.36635,34.47,1693699.0,1721467072.78687,1
10,67.115,0.36635,34.47,1714369.0,1721467073.273826,1
10,10.35,0.365069,34.47,1705984.0,1721467073.760783,1
10,-87.4875,0.372755,34.47,1705894.0,1721467074.308609,1
10,-130.3525,0.380441,34.47,1712142.0,1721467075.769478,1
10,89.2775,0.37916,34.47,1714010.0,1721467076.012957,1
10,25.525,0.37916,34.47,1724330.5,1721467076.256435,1
10,-118.0275,0.376598,34.47,1706732.0,1721467076.560783,1
10,58.795,0.383003,34.47,1723990.5,1721467077.047739,1
10,63.2375,0.380441,34.45,1706640.5,1721467077.534696,1
10,70.15,0.385565,34.45,1704270.0,1721467078.26513,1
10,36.9525,0.385565,34.45,1716350.0,1721467078.508609,1
10,-54.3375,0.380441,34.45,1709793.0,1721467078.752087,1
10,93.1275,0.380441,34.45,1710437.0,1721467079.056435,1
10,18.3075,0.384284,34.45,1722379.5,1721467079.299913,1
10,-103.0975,0.384284,34.45,1715059.0,1721467079.543391,1
10,73.235,0.384284,34.45,1715156.0,1721467079.78687,1
10,-24.865,0.385565,34.45,1705455.0,1721467080.760783,1
10,55.9225,0.384284,34.45,1689404.0,1721467081.004261,1
10,26.9175,0.380441,34.47,1704213.0,1721467081.308609,1
10,-82.69,0.380441,34.47,1720699.5,1721467081.552087,1
10,40.2975,0.383003,34.47,1719199.0,1721467082.039043,1
10,-60.025,0.384284,34.45,1702741.0,1721467082.282521,1
10,61.445,0.380441,34.45,1696572.5,1721467082.526,1
10,84.1475,0.380441,34.45,1702539.0,1721467082.769478,1
10,40.135,0.383003,34.43,1691429.0,1721467083.560783,1
10,99.285,0.385565,34.45,1675965.5,1721467084.291217,1
10,46.26,0.384284,34.45,1686458.5,1721467084.534696,1
10,-48.425,0.385565,34.45,1667033.0,1721467084.778174,1
10,32.943333,0.381722,34.47,1670816.0,1721467085.26513,1
10,-59.95,0.384284,34.43,1722891.5,1721467086.299913,1
10,7.873333,0.39325,34.43,1737406.0,1721467087.030348,1
10,-32.0175,0.394531,34.43,1749517.0,1721467087.760783,1
10,-38.2675,0.399655,34.45,1760612.0,1721467088.552087,1
10,-29.436667,0.397093,34.45,1749184.0,1721467088.795565,1
10,-13.6175,0.399655,34.45,1770025.5,1721467089.282521,1
10,11.495,0.399655,34.45,1782079.0,1721467090.012957,1
10,-128.08,0.404779,34.43,1762305.0,1721467090.256435,1
10,65.3125,0.404779,34.43,1775160.5,1721467090.804261,1
10,-135.5,0.400936,34.43,1760982.5,1721467091.047739,1
10,2.0025,0.402217,34.43,1762505.0,1721467091.534696,1
10,-74.855,0.402217,34.43,1737995.0,1721467092.508609,1
10,150.545,0.404779,34.43,1734621.0,1721467092.752087,1
10,-94.7325,0.40606,34.43,1742969.0,1721467093.056435,1
10,5.6325,0.408622,34.43,1704820.0,1721467094.273826,1
10,-74.1625,0.409902,34.43,1685020.5,1721467094.517304,1
10,87.39,0.40606,34.43,1678862.5,1721467094.760783,1
10,-28.1875,0.407341,34.43,1659611.5,1721467095.308609,1
10,67.6875,0.409902,34.43,1659732.5,1721467095.552087,1
10,-145.935,0.40606,34.43,1630565.5,1721467096.039043,1
10,81.6275,0.404779,34.45,1637727.5,1721467096.282521,1
10,50.3225,0.407341,34.45,1650830.5,1721467096.526,1
10,-74.12,0.412464,34.45,1627773.0,1721467096.769478,1
10,49.3325,0.408622,34.45,1632242.0,1721467097.012957,1
10,-58.4075,0.404779,34.43,1670557.5,1721467097.560783,1
10,25.0225,0.408622,34.43,1664086.5,1721467098.047739,1
10,-34.9,0.408622,34.43,1669695.0,1721467099.021652,1
10,49.04,0.407341,34.43,1698849.0,1721467099.508609,1
10,-25.2075,0.408622,34.43,1698067.0,1721467099.752087,1
10,68.13,0.411183,34.43,1675642.0,1721467100.056435,1
10,38.0325,0.413745,34.43,1680800.0,1721467100.299913,1
10,100.3575,0.413745,34.43,1661672.5,1721467101.517304,1
10,-125.5125,0.409902,34.43,1658885.0,1721467102.004261,1
10,-14.6675,0.409902,34.41,1687476.5,1721467102.552087,1
10,59.4825,0.412464,34.41,1690503.0,1721467103.039043,1
10,-21.95,0.408622,34.41,1714108.0,1721467103.282521,1
10,-116.55,0.407341,34.41,1708542.0,1721467103.526,1
10,52.24,0.407341,34.41,1712844.0,1721467104.560783,1
10,34.905,0.408622,34.41,1728306.0,1721467105.047739,1
10,27.1975,0.409902,34.41,1754983.0,1721467105.291217,1
10,-74.1925,0.40606,34.41,1761214.0,1721467105.534696,1
10,-130.406667,0.409902,34.41,1766667.0,1721467106.26513,1
10,80.0275,0.408622,34.41,1765776.5,1721467106.508609,1
10,-114.2325,0.403498,34.41,1769566.0,1721467107.056435,1
10,68.0775,0.40606,34.41,1761334.0,1721467107.299913,1
10,14.71,0.407341,34.41,1770636.0,1721467107.543391,1
10,30.2925,0.40606,34.39,1762669.5,1721467109.004261,1
10,-128.84,0.403498,34.43,1747961.0,1721467109.308609,1
10,13.59,0.40606,34.43,1763925.0,1721467109.795565,1
10,-121.2575,0.407341,34.43,1760324.0,1721467110.039043,1
10,-51.2475,0.404779,34.41,1769535.0,1721467111.256435,1
10,-117.2575,0.408622,34.41,1744462.5,1721467112.047739,1
10,87.215,0.409902,34.39,1741176.0,1721467112.291217,1
10,104.18,0.417588,34.39,1725856.0,1721467113.021652,1
10,1.8775,0.413745,34.39,1724327.0,1721467113.508609,1
10,-34.61,0.416307,34.39,1711983.5,1721467113.752087,1
10,70.2625,0.416307,34.39,1709934.0,1721467114.78687,1
10,14.056667,0.418869,34.39,1719996.5,1721467115.030348,1
10,93.1175,0.418869,34.41,1709828.0,1721467115.517304,1
10,-112.34,0.416307,34.41,1711186.0,1721467116.004261,1
10,55.685,0.427836,34.39,1734780.0,1721467117.039043,1
10,8.5975,0.427836,34.39,1748289.0,1721467117.282521,1
10,-32.885,0.432959,34.39,1761806.5,1721467117.769478,1
10,-108.9575,0.432959,34.39,1772983.0,1721467118.012957,1
10,-107.8825,0.421431,34.39,1753091.0,1721467119.534696,1
10,88.09,0.422712,34.39,1747193.0,1721467119.778174,1
10,24.8275,0.422712,34.39,1748458.0,1721467120.021652,1
10,-118.866667,0.423993,34.39,1728570.0,1721467120.26513,1
10,42.03,0.422712,34.39,1714686.5,1721467120.752087,1
10,-121.13,0.422712,34.39,1695717.0,1721467121.056435,1
10,16.7,0.426555,34.39,1698474.5,1721467122.273826,1
10,-91.65,0.426555,34.39,1685092.0,1721467122.517304,1
10,-2.026667,0.423993,34.37,1700888.0,1721467123.795565,1
10,-132.45,0.429117,34.37,1689676.0,1721467124.039043,1
10,85.3525,0.431679,34.39,1692393.0,1721467125.012957,1
10,77.3725,0.427836,34.39,1716332.5,1721467125.804261,1
10,47.955,0.432959,34.39,1738928.0,1721467126.778174,1
10,-16.9125,0.430398,34.39,1743572.0,1721467127.021652,1
10,100.6425,0.430398,34.37,1717965.0,1721467127.508609,1
10,-17.1575,0.435521,34.37,1706570.0,1721467128.056435,1
10,-41.165,0.432959,34.37,1707708.0,1721467128.543391,1
10,40.1,0.438083,34.37,1681520.5,1721467129.030348,1
10,56.2475,0.438083,34.37,1662297.0,1721467129.517304,1
10,48.87,0.43424,34.37,1663781.0,1721467129.760783,1
10,46.3325,0.439364,34.39,1698159.5,1721467130.552087,1
10,5.545,0.440645,34.39,1669655.0,1721467131.039043,1
10,51.6425,0.436802,34.39,1667088.0,1721467131.282521,1
10,30.6725,0.443207,34.39,1644708.5,1721467132.012957,1
10,-76.6625,0.441926,34.39,1658162.0,1721467132.256435,1
10,84.5625,0.438083,34.39,1660040.5,1721467132.560783,1
10,-8.6175,0.438083,34.39,1668979.5,1721467132.804261,1
10,55.88,0.443207,34.37,1635960.0,1721467133.291217,1
10,-51.096667,0.44705,34.39,1639214.0,1721467134.26513,1
10,-139.74,0.44705,34.39,1615967.5,1721467134.508609,1
10,68.8675,0.445769,34.39,1619476.5,1721467134.752087,1
10,-1.5275,0.441926,34.39,1634965.0,1721467135.056435,1
10,-154.633333,0.444488,34.41,1621662.5,1721467136.030348,1
10,87.825,0.444488,34.39,1628519.0,1721467136.273826,1
10,39.1325,0.440645,34.39,1643357.0,1721467136.517304,1
10,-102.715,0.444488,34.37,1668640.0,1721467137.552087,1
10,23.356667,0.441926,34.37,1680242.0,1721467137.795565,1
10,22.2775,0.44705,34.37,1689068.0,1721467138.526,1
10,89.05,0.44705,34.37,1686071.0,1721467139.012957,1
10,87.175,0.44705,34.39,1689342.5,1721467139.804261,1
10,-101.535,0.444488,34.39,1687198.0,1721467140.291217,1
10,-10.195,0.445769,34.37,1695649.0,1721467141.752087,1
10,6.81,0.44705,34.37,1736659.0,1721467142.543391,1
10,-120.17,0.444488,34.37,1732294.0,1721467142.78687,1
10,90.683333,0.444488,34.37,1743322.0,1721467143.030348,1
10,26.2,0.445769,34.34,1758709.0,1721467143.273826,1
10,47.7475,0.458578,34.39,1743816.0,1721467145.282521,1
10,-12.5025,0.457297,34.39,1745193.5,1721467145.526,1
10,-105.08,0.457297,34.39,1725517.5,1721467145.769478,1
10,86.52,0.457297,34.39,1724495.5,1721467146.012957,1
10,7.645,0.46114,34.39,1738556.0,1721467146.560783,1
10,4.5775,0.458578,34.39,1749248.0,1721467146.804261,1
10,29.61,0.471388,34.39,1756593.5,1721467147.534696,1
10,95.705,0.484197,34.39,1757321.0,1721467148.021652,1
10,42.753333,0.481635,34.37,1766835.0,1721467148.26513,1
10,-48.03,0.481635,34.37,1759934.0,1721467148.508609,1
10,3.265,0.484197,34.37,1750310.0,1721467148.752087,1
10,-45.94,0.48804,34.39,1748951.0,1721467149.299913,1
10,-6.3025,0.482916,34.39,1744886.0,1721467149.543391,1
10,-23.293333,0.481635,34.39,1748877.0,1721467150.030348,1
10,70.2475,0.482916,34.37,1738944.5,1721467150.517304,1
10,24.525,0.480354,34.37,1750869.5,1721467150.760783,1
10,-118.595,0.47395,34.37,1730645.0,1721467151.004261,1
10,-34.485,0.466264,34.37,1737949.0,1721467152.282521,1
10,-144.195,0.459859,34.37,1722855.5,1721467152.526,1
10,79.0475,0.458578,34.37,1723569.0,1721467152.769478,1
10,18.7975,0.46114,34.37,1729144.5,1721467153.012957,1
10,-123.27,0.459859,34.39,1715428.5,1721467153.256435,1
10,58.9275,0.458578,34.39,1713430.5,1721467153.560783,1
10,89.07,0.452174,34.39,1706015.0,1721467154.047739,1
10,-57.21,0.456017,34.37,1710160.0,1721467154.291217,1
10,-120.18,0.454736,34.37,1714897.0,1721467154.534696,1
10,82.4175,0.454736,34.37,1694319.0,1721467154.778174,1
10,42.3875,0.450893,34.34,1682529.0,1721467155.752087,1
10,-111.11,0.452174,34.34,1666026.0,1721467156.056435,1
10,60.13,0.449612,34.33,1679904.0,1721467156.543391,1
10,89.55,0.450893,34.37,1668209.0,1721467157.273826,1
10,-79.0225,0.450893,34.37,1667371.0,1721467157.760783,1
10,47.3525,0.448331,34.37,1671610.0,1721467158.004261,1
10,1.91,0.456017,34.39,1685977.0,1721467158.795565,1
10,-33.455,0.454736,34.37,1702350.5,1721467159.282521,1
10,-40.8425,0.454736,34.37,1685603.5,1721467159.526,1
10,38.3675,0.459859,34.37,1689612.0,1721467161.291217,1
10,-133.895,0.454736,34.37,1684455.0,1721467161.778174,1
10,82.4975,0.452174,34.37,1691180.0,1721467162.021652,1
10,36.37,0.452174,34.37,1707262.0,1721467162.26513,1
10,-40.0275,0.464983,34.34,1764631.0,1721467163.299913,1
10,88.57,0.484197,34.34,1751322.5,1721467165.308609,1
10,42.1675,0.484197,34.34,1756782.0,1721467165.552087,1
10,-45.176667,0.482916,34.34,1752812.0,1721467165.795565,1
10,63.4375,0.475231,34.34,1764661.5,1721467166.282521,1
10,-6.835,0.47395,34.34,1765469.0,1721467167.256435,1
10,41.975,0.467545,34.34,1749537.5,1721467167.804261,1
10,-46.2575,0.48804,34.37,1771810.5,1721467168.778174,1
10,77.5925,0.489321,34.37,1783043.0,1721467169.021652,1
10,62.1175,0.493164,34.34,1794556.0,1721467169.752087,1
10,-19.7375,0.48804,34.34,1802313.0,1721467170.056435,1
10,29.87,0.485478,34.39,1794132.5,1721467170.299913,1
10,51.4525,0.48804,34.34,1817366.0,1721467171.273826,1
10,-30.98,0.470107,34.34,1819103.0,1721467171.517304,1
10,33.9975,0.470107,34.34,1824659.0,1721467172.004261,1
10,-64.56,0.472669,34.39,1825971.0,1721467172.308609,1
10,-104.875,0.472669,34.39,1805528.0,1721467172.552087,1
10,-52.775,0.470107,34.39,1651112.0,1721467173.039043,1
10,-185.205,0.47395,34.34,1591118.0,1721467173.282521,1
10,147.425,0.479074,34.34,1596121.0,1721467173.526,1
2,27.9325,0.331805,33.34,2101303.0,1769235672.257292,1
2,-76.8975,0.386892,33.34,2086744.0,1769235672.548958,1
2,-1.516667,0.340773,33.34,2093692.5,1769235673.015625,1
2,-260.525,0.340773,33.33,2099530.5,1769235673.540625,1
2,73.12,0.342054,33.33,2097498.5,1769235674.007292,1
2,100.6975,0.354865,33.34,2110641.0,1769235675.057292,1
2,224.495,0.356146,33.34,2117966.5,1769235675.290625,1
2,55.4375,0.340773,33.34,2124664.0,1769235675.757292,1
2,-340.566667,0.353584,33.37,2136322.0,1769235676.515625,1
2,239.8475,0.357427,33.37,2135457.0,1769235677.507292,1
2,14.395,0.358708,33.37,2135938.0,1769235678.032292,1
2,-43.283333,0.353584,33.37,2134118.0,1769235678.265625,1
2,208.21,0.352302,33.37,2123509.5,1769235678.790625,1
2,119.2625,0.353584,33.37,2126246.0,1769235679.023958,1
2,-140.105,0.342054,33.37,2105252.5,1769235679.782292,1
2,-92.6625,0.36127,33.39,2065700.5,1769235680.773958,1
2,-116.8675,0.36127,33.39,2083990.5,1769235681.532292,1
2,261.99,0.365113,33.39,2104222.5,1769235681.765625,1
2,92.2475,0.36127,33.37,2157266.0,1769235682.523958,1
2,-206.4175,0.368957,33.37,2165587.0,1769235682.757292,1
2,-80.465,0.3728,33.34,2200581.0,1769235683.807292,1
2,-51.2675,0.371519,33.34,2191721.0,1769235684.507292,1
2,175.7225,0.353584,33.37,2240928.0,1769235685.790625,1
2,-125.245,0.34974,33.37,2259323.0,1769235686.257292,1
2,-85.9025,0.34974,33.37,2268641.0,1769235686.782292,1
2,-450.9225,0.34974,33.34,2275247.0,1769235687.307292,1
2,70.3175,0.352302,33.34,2265681.0,1769235687.540625,1
2,44.6725,0.351021,33.34,2267780.5,1769235687.773958,1
2,15.87,0.347178,33.37,2269426.5,1769235688.298958,1
2,-62.475,0.345897,33.37,2272971.0,1769235688.532292,1
2,76.9125,0.343335,33.37,2253107.0,1769235689.290625,1
2,63.1975,0.340773,33.37,2259604.0,1769235689.523958,1
2,175.385,0.342054,33.37,2245041.0,1769235689.757292,1
2,-6.72,0.340773,33.37,2239642.5,1769235690.048958,1
2,103.8225,0.343335,33.34,2232632.0,1769235690.282292,1
2,-23.775,0.353584,33.34,2181596.0,1769235691.040625,1
2,-180.885,0.345897,33.34,2156018.0,1769235691.798958,1
2,197.56,0.345897,33.34,2132018.5,1769235692.032292,1
2,79.7675,0.231879,33.34,2124775.5,1769235693.782292,1
2,-92.37,0.335648,33.34,2133048.0,1769235694.015625,1
2,-338.12,0.336929,33.33,2115696.0,1769235694.773958,1
2,136.0475,0.334367,33.31,2107992.0,1769235695.298958,1
2,47.4,0.335648,33.31,2096121.0,1769235695.532292,1
2,-173.253333,0.340773,33.31,2105400.0,1769235695.765625,1
2,-78.3525,0.32668,33.33,2099286.0,1769235696.290625,1
2,192.0375,0.333086,33.33,2089587.0,1769235696.523958,1
2,-12.225,0.335648,33.33,2094248.0,1769235697.282292,1
2,-164.113333,0.334367,33.33,2102525.0,1769235697.515625,1
2,115.785,0.33821,33.33,2088312.0,1769235698.273958,1
2,-34.445,0.344616,33.33,2093766.5,1769235698.507292,1
2,-79.083333,0.351021,33.31,2104206.5,1769235699.265625,1
2,-444.8825,0.34974,33.31,2115535.5,1769235699.790625,1
2,-30.4025,0.342054,33.29,2091147.0,1769235700.782292,1
2,-122.33,0.343335,33.29,2091950.0,1769235701.015625,1
2,-42.6825,0.344616,33.29,2083081.0,1769235701.307292,1
2,-169.405,0.343335,33.29,2094384.0,1769235701.540625,1
2,197.346667,0.344616,33.27,2081520.0,1769235702.765625,1
2,103.59,0.342054,33.27,2084847.0,1769235703.290625,1
2,-19.815,0.33821,33.27,2085625.0,1769235703.757292,1
2,-50.46,0.340773,33.27,2090579.0,1769235704.048958,1
2,322.193333,0.347178,33.29,2106788.0,1769235704.515625,1
2,-111.3275,0.348459,33.29,2129930.0,1769235704.807292,1
2,112.26,0.345897,33.27,2126323.5,1769235705.507292,1
2,75.7475,0.343335,33.27,2120575.0,1769235705.798958,1
2,48.74,0.340773,33.27,2125752.5,1769235706.032292,1
2,-68.0775,0.334367,33.27,2126655.0,1769235706.557292,1
2,23.4675,0.336929,33.27,2116468.0,1769235706.790625,1
2,-113.9375,0.336929,33.27,2128256.0,1769235707.023958,1
2,-61.426667,0.348459,33.25,2101566.0,1769235708.015625,1
2,95.2575,0.343335,33.27,2106396.0,1769235708.540625,1
2,-76.6975,0.342054,33.27,2116695.0,1769235708.773958,1
2,120.6425,0.345897,33.27,2112355.0,1769235709.007292,1
2,-64.915,0.353584,33.25,2121506.0,1769235709.298958,1
2,131.5575,0.356146,33.25,2117031.0,1769235709.532292,1
2,64.9075,0.383049,33.25,2125024.0,1769235710.057292,1
2,177.42,0.385611,33.25,2127423.0,1769235710.290625,1
2,24.9025,0.363832,33.27,2159379.0,1769235712.798958,1
2,-21.03,0.374081,33.23,2170852.5,1769235713.265625,1
2,-38.7275,0.374081,33.23,2164323.0,1769235713.557292,1
2,64.53,0.370238,33.23,2172660.0,1769235714.023958,1
2,38.5325,0.363832,33.23,2155961.0,1769235714.782292,1
2,-87.3825,0.368957,33.25,2145279.5,1769235716.007292,1
2,-119.823333,0.362551,33.23,2134880.0,1769235716.765625,1
2,94.06,0.36127,33.25,2095533.5,1769235717.523958,1
2,107.0375,0.367676,33.23,2079079.0,1769235718.282292,1
2,-119.315,0.368957,33.23,2083746.0,1769235719.040625,1
2,-36.9925,0.365113,33.21,2081681.0,1769235719.507292,1
2,80.4875,0.368957,33.21,2072742.0,1769235720.557292,1
2,-71.8375,0.366395,33.21,2082619.0,1769235720.790625,1
2,60.44,0.363832,33.21,2097646.0,1769235721.548958,1
2,-41.4475,0.365113,33.21,2108038.0,1769235721.782292,1
2,35.003333,0.365113,33.21,2114341.0,1769235722.015625,1
2,-54.7975,0.362551,33.21,2131809.0,1769235722.540625,1
2,-91.995,0.376643,33.21,2138548.0,1769235723.532292,1
2,-184.45,0.376643,33.21,2142903.5,1769235723.765625,1
2,66.7175,0.381768,33.18,2155570.0,1769235724.523958,1
2,-90.36,0.383049,33.18,2163645.5,1769235724.757292,1
2,111.49,0.374081,33.21,2158056.0,1769235725.807292,1
2,-67.735,0.374081,33.21,2159461.0,1769235726.040625,1
2,-41.3475,0.3728,33.21,2158830.5,1769235726.273958,1
2,116.8825,0.367676,33.21,2157639.5,1769235726.798958,1
2,-2.9425,0.367676,33.21,2161628.0,1769235727.032292,1
2,30.855,0.371519,33.18,2168830.0,1769235727.557292,1
2,-54.88,0.366395,33.21,2159057.0,1769235728.257292,1
2,118.435,0.365113,33.21,2140668.0,1769235728.548958,1
2,53.92,0.370238,33.18,2185113.0,1769235730.298958,1
2,-377.965,0.36127,33.21,2195645.0,1769235731.290625,1
2,-68.5725,0.359989,33.21,2191129.0,1769235731.523958,1
2,105.4175,0.358708,33.21,2206383.5,1769235732.807292,1
2,54.94,0.363832,33.18,2206399.0,1769235733.507292,1
2,-102.15,0.362551,33.18,2206037.5,1769235733.798958,1
2,98.0575,0.375362,33.21,2177185.0,1769235734.557292,1
2,-130.1125,0.3728,33.21,2158189.0,1769235735.023958,1
2,46.295,0.366395,33.18,2133875.0,1769235735.548958,1
2,-76.37,0.371519,33.18,2108057.0,1769235735.782292,1
2,90.666667,0.374081,33.18,2104228.0,1769235736.015625,1
2,-99.395,0.3728,33.18,2096404.0,1769235736.307292,1
2,-11.5625,0.366395,33.18,2079843.5,1769235738.290625,1
2,-126.62,0.367676,33.18,2094489.0,1769235739.048958,1
2,119.6075,0.363832,33.16,2107920.0,1769235739.282292,1
2,75.3125,0.362551,33.16,2117175.5,1769235739.807292,1
2,47.7475,0.365113,33.16,2127074.0,1769235740.040625,1
2,-89.3175,0.363832,33.16,2123835.0,1769235740.273958,1
2,-41.9775,0.362551,33.16,2129531.0,1769235741.032292,1
2,-288.44,0.368957,33.18,2130808.0,1769235741.557292,1
2,21.2525,0.366395,33.18,2136681.0,1769235742.023958,1
2,-12.4125,0.366395,33.16,2131462.0,1769235742.257292,1
2,64.695,0.365113,33.16,2136258.0,1769235742.548958,1
2,-98.6525,0.3728,33.16,2124187.0,1769235742.782292,1
2,-99.693333,0.363832,33.16,2062275.0,1769235744.765625,1
2,75.8375,0.363832,33.16,2065735.0,1769235745.057292,1
2,-3.5975,0.362551,33.16,2054298.5,1769235745.290625,1
2,53.7025,0.363832,33.16,2052594.5,1769235745.523958,1
2,-148.985,0.367676,33.16,2035889.5,1769235746.048958,1
2,47.8525,0.366395,33.16,2052557.5,1769235746.807292,1
2,-75.205,0.368957,33.16,2061237.0,1769235747.273958,1
2,97.99,0.368957,33.16,2068944.0,1769235747.507292,1
2,211.263333,0.363832,33.16,2085855.0,1769235748.265625,1
2,58.0825,0.366395,33.18,2126094.0,1769235750.307292,1
2,-229.6325,0.363832,33.18,2125447.5,1769235751.007292,1
2,33.635,0.366395,33.18,2136020.5,1769235751.532292,1
2,23.78,0.365113,33.18,2132352.5,1769235752.057292,1
2,103.9125,0.357427,33.15,2099260.5,1769235753.807292,1
2,22.97,0.363832,33.15,2097275.0,1769235754.507292,1
2,130.2475,0.36127,33.16,2094498.0,1769235756.023958,1
2,87.185,0.356146,33.16,2108312.0,1769235756.257292,1
2,-120.36,0.357427,33.16,2111810.0,1769235756.548958,1
2,-173.46,0.354865,33.16,2151050.5,1769235757.773958,1
2,80.93,0.36127,33.16,2175711.0,1769235758.532292,1
2,97.49,0.354865,33.15,2210268.5,1769235761.273958,1
2,125.3575,0.356146,33.15,2188244.0,1769235761.798958,1
2,160.405,0.357427,33.15,2170337.0,1769235762.032292,1
2,79.73,0.358708,33.15,2106525.5,1769235763.023958,1
2,-561.125,0.353584,33.15,2070484.0,1769235763.548958,1
2,185.886667,0.353584,33.15,2058454.0,1769235764.015625,1
2,-74.4,0.358708,33.13,2041114.5,1769235764.307292,1
2,73.3175,0.358708,33.13,2029630.0,1769235764.773958,1
2,-40.35,0.353584,33.13,2040328.0,1769235765.298958,1
2,-94.33,0.354865,33.13,2035196.0,1769235765.765625,1
2,-34.44,0.359989,33.13,2053160.0,1769235766.290625,1
2,67.84,0.356146,33.13,2072457.0,1769235766.757292,1
2,-348.92,0.358708,33.13,2093922.0,1769235767.515625,1
2,81.72,0.352302,33.13,2117627.0,1769235768.040625,1
2,88.185,0.354865,33.15,2133249.0,1769235768.798958,1
2,-20.366667,0.352302,33.15,2141820.5,1769235769.265625,1
2,-110.45,0.351021,33.15,2139814.0,1769235769.557292,1
2,105.045,0.354865,33.15,2148270.0,1769235770.023958,1
2,50.4625,0.357427,33.15,2142452.5,1769235770.782292,1
2,141.2725,0.354865,33.13,2139486.0,1769235771.307292,1
2,102.3625,0.356146,33.13,2126141.0,1769235772.007292,1
2,111.25,0.363832,33.13,2096007.0,1769235773.290625,1
2,77.25,0.358708,33.13,2086371.0,1769235773.523958,1
2,-42.825,0.356146,33.13,2079360.0,1769235773.757292,1
2,105.9175,0.353584,33.13,2073573.0,1769235774.048958,1
2,-215.1925,0.353584,33.13,2057244.0,1769235774.282292,1
2,-104.43,0.353584,33.13,2056839.5,1769235774.515625,1
2,-57.18,0.356146,33.13,2061151.0,1769235775.040625,1
2,115.065,0.354865,33.11,2066980.5,1769235775.273958,1
2,112.3275,0.357427,33.11,2069929.5,1769235776.032292,1
2,72.04,0.358708,33.11,2071839.5,1769235776.557292,1
2,-17.56,0.357427,33.13,2090566.0,1769235777.548958,1
2,38.753333,0.36127,33.13,2101051.0,1769235778.015625,1
2,129.745,0.356146,33.13,2106747.5,1769235778.540625,1
2,-32.9675,0.354865,33.13,2104897.0,1769235778.773958,1
2,100.7325,0.357427,33.13,2098635.0,1769235779.007292,1
2,-200.3025,0.357427,33.13,2115287.0,1769235779.298958,1
2,-45.2075,0.359989,33.13,2157419.0,1769235780.290625,1
2,-36.54,0.362551,33.13,2154040.0,1769235780.757292,1
2,32.0425,0.358708,33.13,2151426.0,1769235781.282292,1
2,-220.185,0.357427,33.13,2143142.0,1769235782.040625,1
2,91.435,0.357427,33.09,2144447.5,1769235782.507292,1
2,93.145,0.357427,33.09,2129346.0,1769235783.032292,1
2,-26.493333,0.358708,33.13,2124049.0,1769235783.265625,1
2,105.865,0.358708,33.13,2117360.5,1769235783.557292,1
2,-132.6975,0.357427,33.13,2112391.0,1769235783.790625,1
2,92.7575,0.363832,33.09,2072383.0,1769235785.307292,1
2,71.24,0.358708,33.09,2066670.0,1769235786.007292,1
2,-99.69,0.359989,33.13,2066023.0,1769235786.532292,1
2,80.823333,0.358708,33.13,2069405.0,1769235786.765625,1
2,23.665,0.359989,33.09,2089419.0,1769235788.048958,1
2,-100.38,0.357427,33.11,2092322.5,1769235788.282292,1
2,-72.0225,0.358708,33.11,2112404.0,1769235789.040625,1
2,86.1025,0.36127,33.11,2119926.0,1769235789.273958,1
2,59.1025,0.356146,33.11,2127300.0,1769235789.507292,1
2,-66.966667,0.356146,33.09,2134947.0,1769235790.265625,1
2,-134.02,0.357427,33.09,2151126.0,1769235791.023958,1
2,-44.35,0.357427,33.09,2157022.0,1769235791.548958,1
2,103.786667,0.359989,33.09,2162106.0,1769235792.015625,1
2,69.0375,0.358708,33.11,2152478.0,1769235792.540625,1
2,79.4,0.362551,33.09,2159526.5,1769235793.765625,1
2,103.335,0.36127,33.09,2125501.5,1769235795.048958,1
2,37.4025,0.36127,33.09,2105422.5,1769235795.807292,1
2,-89.02,0.362551,33.09,2084753.5,1769235796.040625,1
2,28.2,0.36127,33.09,2069605.0,1769235796.507292,1
2,-156.233333,0.36127,33.09,2044271.0,1769235797.265625,1
2,38.89,0.363832,33.09,2046713.0,1769235798.257292,1
2,-66.8225,0.36127,33.09,2045494.5,1769235798.548958,1
2,-38.053333,0.359989,33.09,2055284.0,1769235799.015625,1
2,72.8625,0.359989,33.09,2059378.0,1769235799.307292,1
2,-103.3675,0.363832,33.09,2074614.0,1769235799.773958,1
2,73.385,0.365113,33.09,2083593.0,1769235800.007292,1
2,-66.0825,0.362551,33.09,2095820.0,1769235800.298958,1
2,-70.665,0.365113,33.09,2113668.0,1769235801.057292,1
2,0.585,0.363832,33.09,2154372.0,1769235802.048958,1
2,184.8575,0.363832,33.09,2164941.5,1769235803.040625,1
2,-387.2125,0.365113,33.07,2162008.0,1769235804.032292,1
2,193.403333,0.363832,33.09,2156532.0,1769235804.265625,1
2,7.225,0.362551,33.09,2154006.0,1769235804.557292,1
2,43.94,0.36127,33.09,2099094.0,1769235807.007292,1
2,-50.58,0.36127,33.07,2087358.5,1769235807.765625,1
2,-99.8525,0.359989,33.07,2088037.5,1769235808.290625,1
2,-73.9575,0.362551,33.07,2073806.0,1769235808.523958,1
2,-22.69,0.358708,33.09,2114058.0,1769235809.515625,1
2,129.7925,0.362551,33.09,2111798.5,1769235809.807292,1
2,-106.6825,0.362551,33.07,2117220.0,1769235810.273958,1
2,168.275,0.363832,33.07,2116236.0,1769235810.507292,1
2,125.1575,0.366395,33.09,2128298.0,1769235811.790625,1
2,34.7075,0.367676,33.09,2128323.0,1769235812.023958,1
2,-73.465,0.363832,33.05,2126795.0,1769235812.257292,1
2,94.1,0.359989,33.07,2131387.0,1769235813.773958,1
2,-95.82,0.36127,33.07,2130234.5,1769235814.007292,1
2,-26.316667,0.362551,33.05,2128495.0,1769235814.765625,1
2,93.8375,0.357427,33.07,2131714.0,1769235815.523958,1
2,0.12,0.359989,33.07,2135882.0,1769235815.757292,1
2,111.195,0.359989,33.07,2127545.0,1769235816.048958,1
2,-49.9,0.363832,33.05,2121664.5,1769235816.515625,1
2,223.7275,0.359989,33.05,2120080.0,1769235816.807292,1
2,-319.675,0.36127,33.07,2102143.5,1769235817.798958,1
2,161.295,0.359989,33.07,2100373.0,1769235818.032292,1
2,43.91,0.36127,33.05,2097240.0,1769235818.265625,1
2,-19.1425,0.359989,33.05,2085620.5,1769235818.557292,1
2,91.9575,0.359989,33.05,2087927.0,1769235818.790625,1
2,94.1475,0.359989,33.07,2072289.0,1769235819.257292,1
2,49.356667,0.359989,33.07,2063360.0,1769235820.015625,1
2,73.13,0.362551,33.05,2073158.0,1769235820.773958,1
2,-81.265,0.362551,33.05,2064025.0,1769235821.007292,1
2,113.675,0.362551,33.07,2068973.0,1769235821.298958,1
2,37.34,0.357427,33.07,2065082.0,1769235821.765625,1
2,-48.7175,0.356146,33.07,2066545.0,1769235822.057292,1
2,-38.8075,0.36127,33.07,2085707.0,1769235823.048958,1
2,71.4225,0.358708,33.07,2095601.0,1769235823.282292,1
2,-27.96,0.356146,33.07,2094193.0,1769235823.515625,1
2,-29.0775,0.358708,33.07,2105631.5,1769235824.040625,1
2,41.9025,0.358708,33.05,2111413.0,1769235824.507292,1
2,-77.155,0.357427,33.05,2131594.0,1769235826.548958,1
2,58.69,0.358708,33.05,2128243.0,1769235826.782292,1
2,34.17,0.36127,33.05,2134976.0,1769235827.015625,1
2,-69.465,0.363832,33.03,2132165.0,1769235827.307292,1
2,52.3125,0.359989,33.03,2133452.0,1769235827.540625,1
2,-13.7575,0.357427,33.03,2138595.0,1769235827.773958,1
2,-9.885,0.356146,33.03,2137630.0,1769235828.007292,1
2,-118.0875,0.358708,33.07,2144188.0,1769235828.298958,1
2,-96.2175,0.359989,33.07,2136088.0,1769235828.532292,1
2,-49.9325,0.359989,33.03,2142003.0,1769235830.048958,1
2,84.21,0.36127,33.05,2133703.0,1769235831.273958,1
2,-26.54,0.366395,33.05,2133946.0,1769235831.507292,1
2,-50.853333,0.356146,33.07,2111648.0,1769235834.015625,1
2,92.87,0.356146,33.05,2111539.0,1769235834.307292,1
2,202.02,0.362551,33.07,2141829.0,1769235836.057292,1
2,176.435,0.358708,33.05,2166721.0,1769235837.282292,1
2,96.553333,0.36127,33.05,2172605.0,1769235837.515625,1
2,152.525,0.365113,33.05,2179525.0,1769235838.040625,1
2,-195.605,0.358708,33.03,2181853.0,1769235838.798958,1
2,99.526667,0.36127,33.07,2147176.0,1769235841.015625,1
2,0.6025,0.36127,33.05,2140240.0,1769235841.307292,1
2,-187.205,0.36127,33.05,2126122.0,1769235841.540625,1
2,116.3825,0.358708,33.05,2123144.0,1769235841.773958,1
2,54.99,0.362551,33.07,2101699.0,1769235842.532292,1
2,-80.65,0.362551,33.07,2081708.0,1769235842.765625,1
2,98.565,0.359989,33.07,2079134.5,1769235843.057292,1
2,-79.545,0.357427,33.05,2065804.0,1769235843.290625,1
2,-112.8125,0.36127,33.05,2061778.5,1769235844.048958,1
2,109.7775,0.362551,33.05,2062359.0,1769235844.282292,1
2,25.9175,0.356146,33.05,2065404.0,1769235845.040625,1
2,49.4825,0.36127,33.03,2064954.0,1769235845.798958,1
2,86.693333,0.362551,33.05,2071533.0,1769235846.265625,1
2,-13.93,0.357427,33.05,2067113.5,1769235846.557292,1
2,143.86,0.359989,33.05,2071272.0,1769235846.790625,1
2,-62.9025,0.36127,33.05,2078932.0,1769235847.023958,1
2,-366.15,0.362551,33.03,2073192.0,1769235847.257292,1
2,112.935,0.358708,33.03,2079753.0,1769235847.548958,1
2,34.33,0.357427,33.03,2081383.0,1769235847.782292,1
2,-78.52,0.356146,33.03,2089587.0,1769235849.007292,1
2,15.3725,0.365113,33.03,2117609.5,1769235850.290625,1
2,-6.8375,0.36127,33.03,2118169.0,1769235851.048958,1
2,14.8575,0.362551,33.03,2120774.0,1769235851.282292,1
2,22.92,0.36127,33.03,2132099.0,1769235852.798958,1
2,-109.1725,0.357427,33.05,2134684.0,1769235853.557292,1
2,12.745,0.359989,33.05,2138236.0,1769235853.790625,1
2,-1.0675,0.358708,33.05,2146620.0,1769235854.023958,1
2,106.5675,0.363832,33.03,2146764.0,1769235854.548958,1
2,52.255,0.365113,33.03,2146201.0,1769235854.782292,1
2,-37.983333,0.367676,33.03,2148530.5,1769235855.015625,1
2,-17.46,0.359989,33.03,2151246.0,1769235855.773958,1
2,-27.145,0.36127,33.03,2155248.0,1769235856.007292,1
2,132.5925,0.36127,33.03,2157097.0,1769235856.532292,1
2,19.723333,0.359989,33.03,2155229.0,1769235856.765625,1
2,83.455,0.359989,33.05,2159124.5,1769235857.290625,1
2,-149.5825,0.359989,33.05,2153742.0,1769235857.523958,1
2,-114.4625,0.36127,33.05,2155969.0,1769235858.048958,1
2,-52.056667,0.358708,33.0,2165541.0,1769235858.515625,1
2,-26.675,0.359989,33.03,2164893.0,1769235859.798958,1
2,-167.0625,0.363832,33.03,2153911.0,1769235860.032292,1
2,111.813333,0.362551,33.0,2158048.5,1769235860.265625,1
2,62.665,0.36127,33.0,2174165.0,1769235861.548958,1
2,-87.76,0.36127,33.0,2169205.5,1769235861.782292,1
2,95.973333,0.365113,33.0,2143190.0,1769235862.015625,1
2,26.2975,0.365113,33.03,2156323.0,1769235862.307292,1
2,89.9775,0.371519,33.03,2161766.5,1769235862.773958,1
2,-194.983333,0.363832,33.05,2129241.0,1769235863.765625,1
2,-18.0675,0.376643,33.0,2124295.0,1769235864.290625,1
2,48.795,0.36127,33.0,2119638.0,1769235864.523958,1
2,48.445,0.363832,33.0,2127057.0,1769235864.757292,1
2,120.9175,0.358708,33.03,2107799.0,1769235866.507292,1
2,87.536667,0.363832,33.0,2112561.0,1769235867.265625,1
2,28.2875,0.36127,33.0,2105811.0,1769235867.557292,1
2,20.2925,0.362551,33.03,2117894.0,1769235868.548958,1
2,62.6275,0.370238,33.03,2112392.0,1769235868.782292,1
2,63.676667,0.363832,33.03,2116172.0,1769235869.015625,1
2,-82.9675,0.36127,33.0,2115111.0,1769235869.307292,1
2,-329.48,0.362551,33.0,2109301.0,1769235870.007292,1
2,125.5325,0.362551,33.0,2113557.0,1769235870.298958,1
2,-9.4475,0.363832,33.0,2127491.0,1769235871.757292,1
2,-38.605,0.362551,33.0,2125257.0,1769235872.048958,1
2,-5.0475,0.363832,33.0,2132157.5,1769235872.807292,1
2,42.165,0.365113,33.0,2124616.0,1769235873.040625,1
2,50.745,0.367676,33.0,2126789.0,1769235873.273958,1
2,88.4425,0.365113,33.0,2123886.0,1769235873.798958,1
2,-8.8825,0.365113,33.0,2126531.0,1769235874.032292,1
2,35.7725,0.365113,33.03,2130533.5,1769235874.557292,1
2,79.78,0.375362,33.03,2135481.0,1769235875.257292,1
2,30.335,0.36127,33.03,2129103.0,1769235875.548958,1
2,-160.945,0.36127,33.03,2122700.0,1769235875.782292,1
2,111.5625,0.365113,33.03,2115469.0,1769235876.307292,1
2,66.405,0.36127,33.03,2127747.0,1769235877.007292,1
2,-14.2575,0.363832,32.99,2128923.5,1769235879.282292,1
2,1.926667,0.363832,32.99,2134310.0,1769235879.515625,1
2,90.425,0.36127,32.99,2132519.0,1769235880.040625,1
2,80.165,0.363832,33.0,2133690.0,1769235880.507292,1
2,-30.4675,0.365113,33.0,2132471.0,1769235881.032292,1
2,145.383333,0.365113,33.0,2134944.0,1769235881.265625,1
2,-222.1325,0.362551,33.0,2131168.5,1769235881.557292,1
2,44.69,0.362551,33.0,2133165.0,1769235882.023958,1
2,61.27,0.363832,33.0,2125333.0,1769235882.548958,1
2,-15.8925,0.362551,33.0,2124550.0,1769235882.782292,1
2,-77.59,0.359989,33.0,2123427.5,1769235883.015625,1
2,55.985,0.358708,33.0,2119930.0,1769235883.540625,1
2,66.3925,0.365113,33.0,2120158.5,1769235884.298958,1
2,-53.08,0.365113,33.0,2125127.5,1769235884.532292,1
2,113.47,0.362551,33.0,2117142.5,1769235884.765625,1
2,14.82,0.363832,33.0,2122059.5,1769235885.057292,1
2,-194.775,0.362551,32.99,2116475.5,1769235885.290625,1
2,-98.5225,0.362551,32.99,2121958.0,1769235887.507292,1
2,-147.03,0.359989,32.99,2118478.0,1769235887.798958,1
2,-49.563333,0.358708,32.99,2127517.0,1769235888.265625,1
2,-31.2725,0.365113,32.99,2134862.0,1769235888.790625,1
2,-67.84,0.365113,32.99,2129134.0,1769235889.023958,1
2,47.0625,0.363832,33.0,2131802.0,1769235889.257292,1
2,-53.7125,0.362551,33.0,2127036.0,1769235889.548958,1
2,96.9475,0.363832,33.0,2127294.0,1769235889.782292,1
2,-62.123333,0.365113,33.0,2132318.0,1769235890.015625,1
2,-99.325,0.367676,33.0,2126150.0,1769235891.007292,1
2,58.495,0.371519,32.97,2131032.0,1769235891.298958,1
2,-50.5275,0.366395,32.97,2125580.0,1769235891.532292,1
2,160.1325,0.362551,33.0,2135114.0,1769235893.048958,1
2,-10.725,0.362551,32.99,2143043.0,1769235893.282292,1
2,142.935,0.363832,33.0,2146737.0,1769235894.273958,1
2,-329.2025,0.36127,33.0,2147853.0,1769235894.798958,1
2,-104.46,0.363832,32.99,2142308.0,1769235896.023958,1
2,201.6225,0.359989,32.99,2142454.5,1769235896.257292,1
2,-225.22,0.36127,32.99,2131838.5,1769235896.782292,1
2,131.36,0.363832,32.99,2134202.5,1769235897.015625,1
2,-53.7325,0.363832,32.97,2121668.5,1769235897.307292,1
2,67.3225,0.365113,32.97,2119063.5,1769235897.773958,1
2,-47.5925,0.370238,32.97,2108570.0,1769235898.007292,1
2,-80.51,0.367676,32.97,2090631.0,1769235899.057292,1
2,-95.9725,0.366395,32.99,2070151.0,1769235899.290625,1
2,73.215,0.367676,32.99,2075706.0,1769235899.757292,1
2,80.06,0.367676,32.97,2058963.0,1769235900.515625,1
2,-325.8875,0.363832,32.97,2058492.0,1769235901.040625,1
2,-9.04,0.366395,33.0,2046468.0,1769235901.798958,1
2,-141.785,0.362551,32.99,2029220.0,1769235902.557292,1
2,132.615,0.376643,32.99,2028131.0,1769235902.790625,1
2,-20.2875,0.362551,32.99,2030272.5,1769235903.023958,1
2,-85.215,0.365113,32.99,1996754.0,1769235905.298958,1
2,82.6175,0.363832,32.99,2012303.0,1769235905.532292,1
2,-30.513333,0.362551,32.99,2010615.0,1769235905.765625,1
2,78.4325,0.365113,32.97,2045585.0,1769235906.290625,1
2,3.5875,0.365113,32.97,2051379.0,1769235906.523958,1
2,-267.11,0.366395,32.97,2074525.0,1769235907.048958,1
2,77.483333,0.363832,33.0,2083450.0,1769235907.515625,1
2,-10.66,0.36127,33.0,2101883.0,1769235907.807292,1
2,-69.7675,0.371519,32.97,2140112.5,1769235908.507292,1
2,-58.943333,0.365113,32.99,2157002.0,1769235909.265625,1
2,21.29,0.365113,32.99,2164651.0,1769235909.790625,1
2,10.7525,0.365113,32.99,2167792.0,1769235910.023958,1
2,75.683333,0.366395,32.97,2154889.5,1769235911.015625,1
2,93.43,0.365113,32.97,2131325.0,1769235912.007292,1
2,59.075,0.365113,32.97,2123509.0,1769235912.298958,1
2,145.316667,0.365113,32.97,2106816.0,1769235912.765625,1
2,19.305,0.363832,32.97,2092390.0,1769235913.057292,1
2,61.9625,0.36127,32.97,2087394.0,1769235913.290625,1
2,-177.3625,0.363832,32.97,2077707.0,1769235913.757292,1
2,160.1325,0.363832,32.97,2089672.0,1769235914.807292,1
2,-20.1075,0.365113,32.95,2096170.5,1769235915.507292,1
2,38.696667,0.359989,32.95,2112707.5,1769235916.265625,1
2,192.5025,0.363832,32.95,2130749.5,1769235917.023958,1
2,-294.0775,0.368957,32.99,2136199.5,1769235917.257292,1
2,-143.5125,0.362551,32.99,2144534.5,1769235917.782292,1
2,-0.185,0.362551,32.97,2155861.5,1769235918.540625,1
2,-312.445,0.365113,32.97,2161197.0,1769235919.298958,1
2,107.04,0.36127,32.97,2161869.0,1769235919.532292,1
2,-131.09,0.362551,32.97,2141023.0,1769235920.523958,1
2,149.58,0.368957,32.97,2145066.0,1769235920.757292,1
2,-14.1,0.362551,32.97,2136918.0,1769235921.515625,1
2,-5.1025,0.362551,32.97,2108284.0,1769235921.807292,1
2,-114.31,0.366395,32.97,2107000.0,1769235922.040625,1
2,81.48,0.371519,32.97,2116662.0,1769235922.273958,1
2,-71.435,0.367676,32.97,2100104.5,1769235922.507292,1
2,129.925,0.368957,32.97,2099755.0,1769235922.798958,1
2,104.0175,0.362551,32.97,2070555.0,1769235924.782292,1
2,74.07,0.366395,32.97,2078797.0,1769235925.540625,1
2,-5.585,0.363832,32.97,2076184.0,1769235925.773958,1
2,-188.4175,0.359989,32.97,2098877.0,1769235926.532292,1
2,140.173333,0.363832,32.97,2110890.0,1769235926.765625,1
2,16.9125,0.363832,32.97,2117724.0,1769235927.057292,1
2,96.805,0.366395,32.95,2137298.0,1769235927.523958,1
2,22.9825,0.363832,32.95,2140061.5,1769235927.757292,1
2,103.8275,0.36127,32.95,2150580.0,1769235928.048958,1
2,155.9375,0.36127,32.95,2155684.0,1769235928.282292,1
2,-71.5175,0.365113,32.97,2182581.0,1769235929.798958,1
2,-174.79,0.366395,32.97,2188941.0,1769235930.265625,1
2,22.3725,0.366395,32.97,2189349.0,1769235931.023958,1
2,-75.6725,0.365113,32.97,2184116.5,1769235931.782292,1
2,175.73,0.366395,32.97,2184530.5,1769235932.015625,1
2,-61.6575,0.366395,32.93,2174970.0,1769235932.307292,1
2,-16.17,0.365113,32.93,2168701.0,1769235932.540625,1
2,-97.9925,0.362551,32.93,2153459.0,1769235933.007292,1
2,28.44,0.363832,32.97,2143441.5,1769235933.532292,1
2,11.413333,0.363832,32.97,2127483.0,1769235933.765625,1
2,23.77,0.363832,32.97,2122306.5,1769235934.057292,1
2,-277.915,0.36127,32.99,2106293.0,1769235934.290625,1
2,5.755,0.36127,32.99,2096791.0,1769235934.757292,1
2,24.01,0.368957,32.97,2086438.0,1769235935.282292,1
2,226.7475,0.362551,32.97,2077590.0,1769235935.807292,1
2,-440.42,0.358708,32.97,2081289.0,1769235936.273958,1
2,89.7825,0.365113,32.97,2103549.0,1769235937.032292,1
2,17.61,0.366395,32.97,2116205.5,1769235937.265625,1
2,-93.6025,0.359989,32.97,2141095.0,1769235938.023958,1
2,-44.47,0.365113,32.95,2146967.0,1769235938.257292,1
2,-40.2,0.375362,32.95,2154006.5,1769235938.548958,1
2,47.763333,0.363832,32.97,2207862.0,1769235940.765625,1
2,137.09,0.370238,32.97,2211444.0,1769235941.290625,1
2,120.9075,0.367676,32.97,2213457.0,1769235941.523958,1
2,130.883333,0.363832,32.95,2199536.0,1769235942.515625,1
2,-11.1675,0.363832,32.95,2198687.0,1769235942.807292,1
2,-81.59,0.367676,32.93,2173378.0,1769235944.032292,1
2,120.2925,0.362551,32.95,2163329.0,1769235944.557292,1
2,-223.705,0.363832,32.95,2154345.0,1769235944.790625,1
2,-155.116667,0.363832,32.97,2147266.0,1769235946.015625,1
2,30.125,0.362551,32.95,2152482.5,1769235947.007292,1
2,58.29,0.358708,32.97,2155561.0,1769235947.532292,1
2,169.085,0.358708,32.97,2154533.0,1769235948.057292,1
2,108.7125,0.359989,32.93,2154977.0,1769235948.290625,1
2,-96.8425,0.358708,32.93,2150372.0,1769235948.523958,1
2,72.4025,0.358708,32.93,2153922.5,1769235948.757292,1
4,36.98,0.403474,35.05,1883526.0,1708757861.515625,1
4,-99.576667,0.403474,35.05,1850571.5,1708757863.265625,1
4,99.5325,0.404754,35.05,1858944.5,1708757863.557292,1
4,113.4425,0.403474,35.05,1874980.5,1708757863.790625,1
4,12.65,0.402193,35.05,1866391.5,1708757864.023958,1
4,-74.72,0.402193,35.05,1864154.0,1708757864.257292,1
4,23.0325,0.404754,35.05,1888064.0,1708757864.782292,1
4,27.365,0.406035,35.03,1895135.0,1708757866.007292,1
4,71.8975,0.399631,35.03,1884849.5,1708757867.290625,1
4,171.735,0.388103,35.03,1881942.5,1708757867.523958,1
4,-378.2325,0.38426,35.03,1887787.0,1708757868.048958,1
4,-10.1125,0.38298,35.05,1913864.0,1708757869.507292,1
4,90.5,0.38426,35.05,1936167.0,1708757870.265625,1
4,44.3425,0.385541,35.05,1946808.0,1708757870.557292,1
4,-14.895,0.385541,35.05,1959738.0,1708757870.790625,1
4,0.315,0.385541,35.03,1959940.0,1708757871.257292,1
4,-11.865,0.38298,35.03,1988977.0,1708757872.307292,1
4,-38.305,0.38426,35.03,2010747.0,1708757872.540625,1
4,34.05,0.380418,35.03,2037174.0,1708757873.007292,1
4,-25.23,0.379137,35.03,2038105.0,1708757873.298958,1
4,42.87,0.380418,35.03,2038335.5,1708757873.532292,1
4,-152.8325,0.381699,35.03,2052992.0,1708757874.057292,1
4,29.7075,0.381699,35.03,2027663.0,1708757874.523958,1
4,29.155,0.381699,35.03,2011523.5,1708757875.048958,1
4,-0.845,0.386822,35.03,2012936.0,1708757875.807292,1
4,53.8525,0.38298,35.03,2013237.0,1708757876.040625,1
4,-72.1425,0.38298,35.03,2021370.0,1708757876.507292,1
4,3.575,0.381699,35.03,2019336.0,1708757877.032292,1
4,-69.1475,0.38298,35.03,2041108.0,1708757878.023958,1
4,39.0,0.38298,35.03,2046133.0,1708757878.548958,1
4,24.3975,0.38426,35.03,2057222.0,1708757878.782292,1
4,-1.12,0.38298,35.03,2056619.0,1708757879.015625,1
4,42.41,0.380418,35.03,2064405.0,1708757879.773958,1
4,-118.9025,0.377856,35.03,2098228.0,1708757881.057292,1
4,43.64,0.377856,35.0,2103957.0,1708757882.048958,1
4,25.485,0.376575,35.0,2102502.5,1708757882.282292,1
4,-54.573333,0.377856,35.0,2104393.0,1708757882.515625,1
4,32.1,0.377856,35.0,2100300.0,1708757882.807292,1
4,33.4425,0.381699,35.03,2094544.0,1708757883.507292,1
4,45.645,0.380418,35.03,2085766.0,1708757883.798958,1
4,-22.29,0.380418,35.03,2085243.0,1708757884.032292,1
4,-54.083333,0.380418,35.0,2081765.0,1708757884.265625,1
4,-62.725,0.374014,34.99,2077956.0,1708757885.782292,1
4,33.423333,0.375294,34.99,2071897.0,1708757886.015625,1
4,16.9075,0.376575,35.0,2069928.0,1708757886.307292,1
4,-51.3,0.374014,35.0,2072720.5,1708757886.540625,1
4,16.9,0.376575,35.0,2063664.5,1708757886.773958,1
4,48.13,0.376575,35.0,2060668.0,1708757887.007292,1
4,-22.365,0.375294,35.0,2063667.0,1708757887.298958,1
4,-27.7625,0.377856,34.99,2061622.0,1708757889.048958,1
4,11.513333,0.376575,35.0,2044791.0,1708757889.515625,1
4,45.2775,0.390665,35.0,2032267.0,1708757890.040625,1
4,37.6925,0.375294,34.99,2028734.0,1708757890.273958,1
4,-17.8325,0.403474,34.99,2034940.5,1708757890.507292,1
4,22.94,0.388103,34.99,2028440.0,1708757890.798958,1
4,-126.04,0.372733,34.99,2033338.0,1708757891.557292,1
4,-75.6875,0.377856,34.99,2028768.5,1708757892.257292,1
4,24.6525,0.379137,34.99,2012696.5,1708757893.307292,1
4,43.0475,0.379137,34.99,2009369.0,1708757893.540625,1
4,-17.01,0.376575,34.97,1993233.0,1708757895.290625,1
4,-39.895,0.374014,34.97,2001221.0,1708757895.523958,1
4,40.91,0.374014,34.97,1987623.0,1708757895.757292,1
4,-61.825,0.372733,34.97,1998311.0,1708757896.282292,1
4,30.39,0.374014,34.97,1990819.0,1708757896.515625,1
4,-55.0975,0.375294,34.97,1995739.0,1708757897.040625,1
4,34.3775,0.376575,34.97,1979749.0,1708757897.273958,1
4,-39.535,0.375294,34.97,1982109.0,1708757897.798958,1
4,55.44,0.375294,34.97,1975631.0,1708757898.032292,1
4,5.22,0.375294,35.0,1973203.5,1708757898.265625,1
4,-21.9075,0.371452,34.97,1981427.5,1708757899.257292,1
4,27.4075,0.370171,34.97,1988870.5,1708757900.540625,1
4,17.7,0.372733,34.97,2007432.0,1708757901.007292,1
4,24.66,0.371452,34.95,1991889.0,1708757901.298958,1
4,81.275,0.371452,34.97,1988289.0,1708757902.523958,1
4,100.1275,0.371452,34.97,1982346.0,1708757902.757292,1
4,-73.89,0.372733,34.97,1997098.0,1708757903.048958,1
4,-48.915,0.36889,34.93,1981497.0,1708757903.807292,1
4,24.7025,0.36889,34.93,1984283.0,1708757904.040625,1
4,27.19,0.36889,34.97,1968072.0,1708757904.273958,1
4,138.24,0.370171,34.97,1976442.0,1708757904.798958,1
4,-0.0975,0.367609,34.97,1971816.0,1708757905.032292,1
4,12.1375,0.371452,34.97,1967031.0,1708757905.790625,1
4,34.89,0.372733,34.95,1962442.5,1708757906.257292,1
4,45.84,0.370171,34.95,1951213.0,1708757907.015625,1
4,-51.355,0.36889,34.93,1959787.0,1708757907.540625,1
4,-2.625,0.367609,34.93,1957760.5,1708757907.773958,1
4,22.866667,0.367609,34.97,1925543.0,1708757908.765625,1
4,17.0975,0.370171,34.95,1925677.0,1708757910.807292,1
4,-7.3675,0.370171,34.95,1922278.0,1708757911.040625,1
4,-72.02,0.371452,34.95,1926681.0,1708757911.273958,1
4,25.6175,0.370171,34.95,1922479.5,1708757911.507292,1
4,51.25,0.367609,34.95,1940548.5,1708757912.265625,1
4,13.835,0.367609,34.95,1933247.0,1708757913.257292,1
4,-10.06,0.367609,34.93,1931728.0,1708757914.307292,1
4,-81.2325,0.367609,34.93,1945579.0,1708757915.007292,1
4,34.02,0.36889,34.93,1939672.0,1708757915.298958,1
4,1.29,0.370171,34.93,1928688.0,1708757915.532292,1
4,-70.466667,0.367609,34.93,1928016.0,1708757915.765625,1
4,7.9775,0.365047,34.93,1922172.0,1708757916.757292,1
4,42.36,0.365047,34.91,1912491.0,1708757917.515625,1
4,3.0975,0.367609,34.91,1903387.0,1708757917.807292,1
4,49.1975,0.366328,34.93,1886624.0,1708757918.507292,1
4,-60.135,0.36889,34.93,1897100.5,1708757918.798958,1
4,25.4425,0.367609,34.93,1901180.0,1708757919.032292,1
4,8.8,0.36889,34.91,1905606.0,1708757919.265625,1
4,-45.8225,0.36889,34.91,1921639.0,1708757919.557292,1
4,-6.455,0.36889,34.91,1921729.0,1708757920.023958,1
4,-66.31,0.370171,34.93,1915908.0,1708757921.015625,1
4,13.875,0.365047,34.91,1918255.0,1708757922.298958,1
4,40.1675,0.365047,34.91,1910219.0,1708757923.057292,1
4,-12.5625,0.363767,34.91,1901465.0,1708757923.523958,1
4,-31.14,0.366328,34.91,1899741.0,1708757924.048958,1
4,31.756667,0.366328,34.93,1917689.5,1708757924.515625,1
4,-51.5425,0.367609,34.93,1924019.0,1708757924.807292,1
4,19.2875,0.366328,34.91,1912541.5,1708757926.032292,1
4,-36.876667,0.367609,34.95,1920697.0,1708757926.265625,1
4,-14.5575,0.362486,34.95,1925348.0,1708757926.790625,1
4,-48.075,0.362486,34.91,1908212.0,1708757927.782292,1
4,-73.73,0.361205,34.91,1888871.0,1708757928.540625,1
4,22.1325,0.365047,34.91,1868468.0,1708757929.007292,1
4,-54.545,0.366328,34.91,1870245.0,1708757929.298958,1
4,30.453333,0.363767,34.91,1852734.0,1708757929.765625,1
4,14.9375,0.365047,34.91,1849497.5,1708757930.290625,1
4,-24.8,0.363767,34.91,1855218.5,1708757930.757292,1
4,31.1225,0.365047,34.91,1869760.5,1708757931.048958,1
4,19.715,0.361205,34.89,1863292.0,1708757931.282292,1
4,46.43,0.362486,34.89,1870507.0,1708757932.798958,1
4,-24.5625,0.362486,34.89,1880078.0,1708757933.032292,1
4,19.15,0.362486,34.89,1895229.0,1708757933.557292,1
4,-26.9,0.362486,34.91,1910305.0,1708757934.782292,1
4,-77.495,0.363767,34.89,1900122.0,1708757935.307292,1
4,-54.9825,0.365047,34.89,1905289.5,1708757936.007292,1
4,-33.1575,0.362486,34.89,1911463.0,1708757937.290625,1
4,11.3475,0.362486,34.89,1916426.0,1708757937.523958,1
4,26.4675,0.363767,34.89,1908501.5,1708757937.757292,1
4,25.51,0.362486,34.89,1908129.5,1708757938.282292,1
4,-3.9575,0.361205,34.89,1904235.0,1708757938.807292,1
4,85.5625,0.363767,34.89,1920819.0,1708757939.040625,1
4,-73.1625,0.363767,34.91,1929979.0,1708757939.507292,1
4,-76.893333,0.359924,34.87,1922067.0,1708757940.265625,1
4,-89.9875,0.359924,34.87,1914000.0,1708757940.790625,1
4,-52.0525,0.35352,34.84,1933006.0,1708757941.782292,1
4,53.46,0.354801,34.84,1942460.0,1708757942.015625,1
4,18.6275,0.354801,34.87,1916063.0,1708757942.773958,1
4,-5.95,0.357362,34.84,1934353.0,1708757943.532292,1
4,70.74,0.361205,34.84,1928068.0,1708757944.290625,1
4,-6.315,0.362486,34.84,1923559.0,1708757944.523958,1
4,14.6475,0.362486,34.84,1936477.0,1708757944.757292,1
4,-25.64,0.361205,34.84,1936527.0,1708757945.282292,1
4,-41.033333,0.362486,34.84,1936091.0,1708757945.515625,1
4,-2.555,0.358643,34.84,1950425.0,1708757946.798958,1
4,-19.4525,0.359924,34.84,1970405.0,1708757947.790625,1
4,-3.495,0.359924,34.84,1960236.0,1708757948.023958,1
4,-64.826667,0.361205,34.84,1973559.5,1708757949.015625,1
4,6.105,0.361205,34.87,1987763.0,1708757949.307292,1
4,-16.15,0.362486,34.87,1977755.5,1708757949.773958,1
4,33.615,0.359924,34.87,1970405.0,1708757950.298958,1
4,25.6625,0.363767,34.87,1957282.0,1708757951.057292,1
4,-70.8125,0.365047,34.89,1961965.0,1708757951.523958,1
4,-26.2225,0.367609,34.89,1948142.5,1708757952.282292,1
4,30.9675,0.367609,34.89,1926197.0,1708757952.807292,1
4,-79.485,0.36889,34.87,1927689.0,1708757953.273958,1
4,-124.5725,0.366328,34.87,1931806.0,1708757954.032292,1
4,43.6025,0.366328,34.89,1928197.0,1708757954.557292,1
4,-137.59,0.366328,34.89,1939170.0,1708757954.790625,1
4,12.185,0.36889,34.89,1928105.5,1708757955.257292,1
4,-75.9625,0.366328,34.89,1939234.0,1708757955.548958,1
4,20.9825,0.371452,34.89,1924110.5,1708757956.773958,1
4,-84.5375,0.370171,34.89,1927952.5,1708757957.007292,1
4,-21.0725,0.372733,34.89,1923781.0,1708757957.532292,1
4,72.5625,0.371452,34.89,1928082.0,1708757958.057292,1
4,19.1425,0.370171,34.89,1932202.0,1708757958.757292,1
4,-82.955,0.36889,34.91,1922234.0,1708757959.282292,1
4,-48.6975,0.370171,34.91,1919188.0,1708757960.040625,1
4,7.15,0.36889,34.89,1922460.0,1708757960.273958,1
4,21.045,0.36889,34.89,1910248.0,1708757960.507292,1
4,43.32,0.371452,34.93,1905780.0,1708757961.265625,1
4,21.3175,0.374014,34.89,1915607.0,1708757962.782292,1
4,-18.013333,0.375294,34.89,1920081.0,1708757963.015625,1
4,19.4425,0.374014,34.91,1932748.0,1708757963.307292,1
4,42.645,0.374014,34.91,1923424.0,1708757963.540625,1
4,-3.5275,0.371452,34.91,1929204.5,1708757963.773958,1
4,-40.61,0.375294,34.91,1946201.5,1708757964.007292,1
4,-64.946667,0.371452,34.91,1950881.0,1708757964.765625,1
4,-88.6275,0.374014,34.91,1951019.5,1708757965.523958,1
4,24.2025,0.375294,34.91,1940875.0,1708757965.757292,1
4,-10.285,0.377856,34.91,1947292.5,1708757966.048958,1
4,-57.79,0.377856,34.91,1957779.0,1708757966.282292,1
4,11.863333,0.380418,34.91,1947533.0,1708757966.515625,1
4,67.1375,0.379137,34.91,1949402.5,1708757966.807292,1
4,10.61,0.380418,34.89,1947638.0,1708757967.507292,1
4,-46.97,0.381699,34.89,1956439.0,1708757967.798958,1
4,-9.5275,0.380418,34.89,1950565.0,1708757968.032292,1
4,18.666667,0.380418,34.91,1948109.0,1708757968.265625,1
4,30.295,0.380418,34.91,1962307.0,1708757968.790625,1
4,-15.6775,0.380418,34.91,1968914.5,1708757969.257292,1
4,-37.5375,0.381699,34.91,1976555.0,1708757969.548958,1
4,-11.366667,0.388103,34.91,1970755.0,1708757970.015625,1
4,30.8125,0.394507,34.89,1982228.5,1708757971.298958,1
4,2.6925,0.400912,34.89,1983653.5,1708757972.290625,1
4,-49.935,0.402193,34.89,1990438.0,1708757972.523958,1
4,-21.5925,0.404754,34.91,1972711.0,1708757973.807292,1
4,-57.46,0.403474,34.91,1976903.0,1708757974.040625,1
4,10.72,0.400912,34.89,1952893.0,1708757976.023958,1
4,-28.5375,0.399631,34.91,1956477.5,1708757976.548958,1
4,-25.5725,0.402193,34.91,1961923.0,1708757977.307292,1
4,23.115,0.402193,34.91,1956215.0,1708757978.532292,1
4,4.5775,0.404754,34.91,1959444.5,1708757979.057292,1
4,-28.27,0.406035,34.91,1961955.0,1708757979.290625,1
4,-79.1,0.406035,34.91,1971798.0,1708757979.523958,1
4,16.8125,0.406035,34.91,1966979.0,1708757980.048958,1
4,17.723333,0.404754,34.87,1971189.0,1708757980.515625,1
4,-25.24,0.403474,34.89,1983557.0,1708757981.273958,1
4,13.85,0.403474,34.89,1983303.0,1708757981.507292,1
4,-13.6075,0.403474,34.89,1991832.0,1708757981.798958,1
4,-12.635,0.404754,34.89,1988827.5,1708757982.032292,1
4,25.823333,0.404754,34.89,1988365.0,1708757982.265625,1
4,-4.39,0.409878,34.87,1992181.0,1708757983.257292,1
4,31.58,0.409878,34.87,1988864.0,1708757984.015625,1
4,-9.175,0.41244,34.89,1988395.0,1708757985.007292,1
4,1.83,0.41244,34.89,1981592.5,1708757985.298958,1
4,-30.765,0.409878,34.89,1997550.5,1708757986.057292,1
4,-5.58,0.423967,34.89,1990202.0,1708757986.290625,1
4,-27.2025,0.416282,34.89,1986774.5,1708757988.507292,1
4,12.9425,0.417563,34.89,1973994.0,1708757988.798958,1
4,1.495,0.417563,34.89,1972295.0,1708757989.032292,1
4,38.915,0.420125,34.87,1961538.0,1708757989.557292,1
4,39.4825,0.420125,34.87,1959071.0,1708757989.790625,1
4,26.1425,0.417563,34.87,1947032.0,1708757990.548958,1
4,8.1275,0.418844,34.87,1947643.0,1708757990.782292,1
4,23.2875,0.417563,34.84,1932810.5,1708757991.307292,1
4,35.735,0.418844,34.84,1929801.5,1708757991.540625,1
4,-3.5325,0.418844,34.84,1935874.0,1708757991.773958,1
4,-0.755,0.415001,34.84,1917073.0,1708757992.532292,1
4,19.375,0.41372,34.84,1895467.5,1708757993.057292,1
4,5.8625,0.41372,34.83,1908370.0,1708757993.523958,1
4,36.9425,0.41372,34.83,1895286.0,1708757994.048958,1
4,-61.95,0.415001,34.87,1885892.0,1708757994.515625,1
4,29.54,0.418844,34.87,1887498.0,1708757995.040625,1
4,-41.5075,0.421406,34.84,1873106.0,1708757995.507292,1
4,30.97,0.418844,34.84,1880787.0,1708757995.798958,1
4,26.58,0.416282,34.89,1891149.5,1708757996.790625,1
4,3.2725,0.41244,34.84,1911884.5,1708757997.782292,1
4,-58.143333,0.415001,34.84,1909038.0,1708757998.015625,1
4,-3.435,0.41244,34.84,1927989.0,1708757998.540625,1
4,88.89,0.41372,34.84,1934847.0,1708757999.007292,1
4,-6.8725,0.41244,34.84,1941116.0,1708757999.298958,1
4,-56.1125,0.418844,34.83,1966255.0,1708758000.290625,1
4,22.555,0.420125,34.83,1963443.0,1708758000.523958,1
4,19.3125,0.421406,34.83,1964796.0,1708758000.757292,1
4,14.993333,0.420125,34.84,1976059.0,1708758001.515625,1
4,30.885,0.418844,34.84,1975212.0,1708758002.040625,1
4,21.7075,0.417563,34.84,1971101.0,1708758002.273958,1
4,-17.946667,0.417563,34.83,1964376.5,1708758003.265625,1
4,-25.805,0.415001,34.83,1965374.5,1708758003.557292,1
4,24.055,0.418844,34.83,1962602.5,1708758003.790625,1
4,-0.78,0.41372,34.83,1967626.5,1708758004.023958,1
4,12.005,0.41244,34.83,1952303.5,1708758004.548958,1
4,-37.303333,0.41244,34.83,1960787.0,1708758005.015625,1
4,30.32,0.418844,34.84,1930663.5,1708758007.757292,1
4,-26.6425,0.421406,34.81,1928871.0,1708758008.807292,1
4,-86.3625,0.421406,34.81,1918303.0,1708758009.040625,1
4,27.0325,0.420125,34.83,1917893.0,1708758009.507292,1
4,-40.89,0.418844,34.83,1913544.0,1708758009.798958,1
4,21.455,0.418844,34.83,1903406.5,1708758010.032292,1
4,20.753333,0.422687,34.81,1904922.0,1708758010.265625,1
4,-17.3675,0.420125,34.81,1909061.0,1708758010.557292,1
4,33.715,0.422687,34.81,1891904.0,1708758011.023958,1
4,6.355,0.421406,34.81,1900499.0,1708758011.257292,1
4,-75.2775,0.421406,34.81,1896530.0,1708758011.548958,1
4,29.6325,0.421406,34.81,1888265.0,1708758011.782292,1
4,-40.0525,0.421406,34.81,1900055.0,1708758012.307292,1
4,15.5825,0.420125,34.79,1914923.5,1708758014.523958,1
4,-54.89,0.421406,34.79,1927643.5,1708758014.757292,1
4,32.1225,0.417563,34.81,1921126.5,1708758015.282292,1
4,-39.48,0.417563,34.81,1930345.5,1708758015.515625,1
4,-50.645,0.425248,34.79,1923859.0,1708758016.507292,1
4,28.095,0.420125,34.79,1931485.5,1708758017.032292,1
4,-38.653333,0.421406,34.81,1931768.0,1708758017.265625,1
4,20.45,0.421406,34.81,1927828.0,1708758017.790625,1
4,6.79,0.421406,34.81,1940311.0,1708758018.023958,1
4,27.78,0.421406,34.79,1930386.0,1708758018.548958,1
4,31.4675,0.418844,34.79,1942668.0,1708758018.782292,1
4,27.1475,0.438057,34.79,1933991.0,1708758019.540625,1
4,-6.5825,0.439338,34.79,1944500.0,1708758019.773958,1
4,-51.57,0.4419,34.79,1927801.0,1708758020.007292,1
4,16.4975,0.439338,34.77,1935211.0,1708758020.532292,1
4,-28.583333,0.439338,34.77,1939716.5,1708758020.765625,1
4,27.955,0.4419,34.77,1927177.0,1708758021.057292,1
4,3.95,0.444461,34.79,1937229.0,1708758021.523958,1
4,-31.836667,0.444461,34.77,1925862.0,1708758022.515625,1
4,23.975,0.444461,34.77,1937546.5,1708758023.040625,1
4,-19.6675,0.44318,34.79,1928062.0,1708758023.507292,1
4,-10.87,0.44318,34.79,1936497.0,1708758024.032292,1
4,-10.663333,0.445742,34.79,1930277.0,1708758024.265625,1
4,80.97,0.447023,34.79,1930644.0,1708758024.790625,1
4,-28.1825,0.450866,34.75,1929853.0,1708758025.257292,1
4,3.216667,0.464955,34.75,1902614.0,1708758026.015625,1
4,-31.9175,0.476483,34.77,1877160.5,1708758027.007292,1
4,46.7775,0.475202,34.77,1859620.0,1708758027.298958,1
4,-50.205,0.47264,34.77,1853269.0,1708758028.057292,1
4,18.4,0.47264,34.79,1877811.5,1708758028.523958,1
4,5.945,0.47136,34.79,1879835.0,1708758029.048958,1
4,10.125,0.479045,34.77,1923716.0,1708758030.040625,1
4,-4.425,0.480326,34.79,1940409.0,1708758030.273958,1
4,-55.08,0.482887,34.79,1946778.0,1708758030.507292,1
4,9.7575,0.488011,34.79,1968561.0,1708758031.032292,1
4,27.505,0.480326,34.79,2004855.0,1708758032.257292,1
4,20.756667,0.47136,34.79,2027844.0,1708758033.015625,1
4,27.255,0.470079,34.77,2030239.0,1708758033.307292,1
4,-19.305,0.470079,34.77,2037267.0,1708758033.540625,1
4,-30.39,0.470079,34.77,2039498.5,1708758033.773958,1
4,34.8525,0.463674,34.77,2036560.0,1708758034.298958,1
4,-29.1475,0.462393,34.77,2034137.0,1708758034.532292,1
4,0.166667,0.463674,34.77,2027639.0,1708758034.765625,1
4,-18.1625,0.461113,34.73,2032442.0,1708758035.290625,1
4,-21.5675,0.45727,34.73,2021317.0,1708758036.048958,1
4,-2.735,0.459832,34.79,2005574.0,1708758036.282292,1
4,13.8725,0.461113,34.79,2003942.0,1708758036.807292,1
4,-29.34,0.461113,34.79,2008143.0,1708758037.040625,1
4,-11.865,0.45727,34.77,1994169.0,1708758037.798958,1
4,-42.78,0.453427,34.75,1969248.0,1708758038.790625,1
4,-20.595,0.449585,34.73,1966065.0,1708758039.548958,1
4,-31.5925,0.449585,34.73,1949632.0,1708758039.782292,1
4,18.6775,0.448304,34.73,1947907.5,1708758040.307292,1
4,-28.385,0.448304,34.73,1936778.0,1708758040.540625,1
4,-29.5575,0.450866,34.73,1928116.0,1708758040.773958,1
4,26.55,0.449585,34.73,1929578.0,1708758041.007292,1
4,47.663333,0.452147,34.77,1910687.0,1708758041.765625,1
4,-25.8,0.452147,34.75,1912903.0,1708758042.290625,1
4,-56.3275,0.452147,34.75,1901971.0,1708758042.523958,1
4,-7.7625,0.449585,34.75,1900036.0,1708758043.282292,1
4,-16.8,0.448304,34.75,1896293.0,1708758043.515625,1
4,8.9825,0.447023,34.75,1900127.0,1708758044.040625,1
4,-38.105,0.447023,34.75,1890482.5,1708758044.273958,1
4,32.2325,0.449585,34.75,1906085.0,1708758044.798958,1
4,-56.236667,0.447023,34.75,1888812.0,1708758045.265625,1
4,33.6125,0.447023,34.75,1898050.0,1708758045.557292,1
4,28.35,0.448304,34.75,1910992.5,1708758045.790625,1
4,-41.9425,0.450866,34.75,1908990.0,1708758046.257292,1
4,24.4125,0.450866,34.75,1916441.0,1708758046.548958,1
4,-0.6475,0.466236,34.75,1919862.5,1708758046.782292,1
4,-56.08,0.450866,34.75,1906959.0,1708758047.015625,1
4,21.875,0.449585,34.73,1910143.0,1708758047.307292,1
4,47.6425,0.449585,34.73,1921041.5,1708758047.540625,1
4,-25.5975,0.450866,34.73,1917074.0,1708758048.007292,1
4,0.6125,0.448304,34.73,1937052.0,1708758048.532292,1
4,22.91,0.447023,34.73,1928085.0,1708758049.057292,1
4,7.79,0.447023,34.73,1938314.0,1708758049.290625,1
4,22.3675,0.444461,34.73,1931978.0,1708758049.757292,1
4,17.385,0.447023,34.73,1929750.0,1708758051.798958,1
4,-48.52,0.447023,34.73,1919999.5,1708758052.032292,1
4,19.546667,0.448304,34.75,1911160.0,1708758052.265625,1
4,27.5325,0.448304,34.75,1923128.0,1708758052.557292,1
4,14.7725,0.450866,34.75,1912399.5,1708758053.023958,1
4,-17.055,0.445742,34.71,1913068.0,1708758053.548958,1
4,61.496667,0.447023,34.71,1891987.0,1708758054.015625,1
4,-3.33,0.444461,34.73,1897966.0,1708758054.307292,1
4,27.0625,0.444461,34.73,1891519.0,1708758055.007292,1
4,-50.0075,0.448304,34.73,1883431.0,1708758056.290625,1
4,32.005,0.447023,34.73,1883510.0,1708758056.523958,1
4,18.3925,0.447023,34.73,1891812.5,1708758057.282292,1
4,28.8025,0.445742,34.73,1891058.0,1708758058.040625,1
4,-20.3025,0.448304,34.71,1908201.0,1708758058.507292,1
4,2.435,0.449585,34.71,1901844.0,1708758058.798958,1
4,-33.5825,0.462393,34.68,1908316.5,1708758059.557292,1
4,15.805,0.461113,34.71,1908489.0,1708758060.782292,1
4,35.0725,0.464955,34.73,1903407.0,1708758061.307292,1
4,29.7675,0.45727,34.73,1902609.0,1708758061.540625,1
4,-3.4825,0.452147,34.71,1917411.5,1708758062.532292,1
4,31.0525,0.449585,34.71,1909261.0,1708758063.057292,1
4,17.8825,0.449585,34.68,1914221.0,1708758063.290625,1
4,-32.45,0.450866,34.68,1917211.5,1708758063.523958,1
4,56.7625,0.459832,34.68,1909500.5,1708758064.048958,1
4,31.4925,0.459832,34.68,1925181.0,1708758065.507292,1
4,-38.5975,0.45727,34.68,1939224.0,1708758066.032292,1
4,28.296667,0.458551,34.68,1928331.0,1708758066.265625,1
4,39.09,0.458551,34.68,1929807.0,1708758067.023958,1
4,-53.9025,0.470079,34.71,1941492.0,1708758067.548958,1
4,31.765,0.484168,34.71,1931909.0,1708758067.782292,1
4,33.356667,0.498258,34.71,1928663.0,1708758068.015625,1
4,-30.7375,0.50082,34.68,1941343.0,1708758068.307292,1
4,-20.565,0.488011,34.68,1936603.5,1708758069.007292,1
4,20.7025,0.48673,34.66,1934343.0,1708758069.298958,1
4,34.1325,0.481606,34.66,1927346.0,1708758069.532292,1
4,32.0425,0.477764,34.66,1926044.0,1708758070.290625,1
4,-0.985,0.473921,34.66,1929393.5,1708758070.523958,1
4,-20.14,0.47264,34.68,1935705.5,1708758071.515625,1
4,-14.5475,0.470079,34.68,1922705.0,1708758071.807292,1
4,12.51,0.470079,34.68,1934115.0,1708758072.273958,1
4,-38.7975,0.468798,34.68,1929444.0,1708758072.507292,1
4,34.3425,0.466236,34.68,1956573.5,1708758073.032292,1
4,-10.925,0.462393,34.68,1950974.0,1708758074.257292,1
4,-6.276667,0.462393,34.68,1967793.0,1708758075.015625,1
4,27.7875,0.463674,34.66,1956990.0,1708758075.540625,1
4,32.08,0.463674,34.68,1964340.0,1708758076.532292,1
4,-43.82,0.463674,34.68,1960826.0,1708758077.057292,1
4,34.83,0.466236,34.68,1968636.0,1708758077.290625,1
4,-21.685,0.461113,34.68,1991280.0,1708758077.757292,1
4,-9.4325,0.466236,34.68,1970474.5,1708758078.048958,1
4,9.33,0.459832,34.68,1974539.5,1708758078.515625,1
4,-70.1575,0.462393,34.68,1965552.0,1708758078.807292,1
4,53.32,0.464955,34.68,1961756.5,1708758079.040625,1
4,-9.02,0.463674,34.68,1949383.0,1708758080.265625,1
4,-34.1775,0.462393,34.68,1928039.0,1708758080.557292,1
4,40.4875,0.463674,34.68,1920740.0,1708758080.790625,1
4,-49.605,0.462393,34.68,1924605.0,1708758081.257292,1
4,-12.25,0.458551,34.68,1899872.0,1708758081.782292,1
4,14.2225,0.459832,34.66,1889272.0,1708758082.773958,1
4,-48.2275,0.462393,34.66,1877111.0,1708758083.007292,1
4,25.31,0.462393,34.66,1865549.0,1708758083.298958,1
4,15.1475,0.461113,34.66,1869650.5,1708758084.757292,1
4,-29.005,0.461113,34.66,1868646.5,1708758085.282292,1
4,27.6125,0.463674,34.66,1846279.0,1708758085.807292,1
4,-23.345,0.462393,34.66,1854303.0,1708758086.040625,1
4,-40.085,0.462393,34.65,1841880.0,1708758086.798958,1
4,18.6725,0.459832,34.65,1835222.0,1708758087.032292,1
4,12.1975,0.459832,34.65,1843548.0,1708758088.257292,1
4,-65.22,0.458551,34.65,1859639.0,1708758088.548958,1
4,27.463333,0.458551,34.65,1860835.0,1708758089.015625,1
4,28.4375,0.454708,34.66,1869993.0,1708758089.540625,1
4,6.3725,0.455989,34.66,1897775.0,1708758090.532292,1
4,-21.3175,0.461113,34.66,1917206.0,1708758091.057292,1
4,13.56,0.462393,34.66,1927407.0,1708758091.523958,1
4,-42.85,0.462393,34.66,1937951.5,1708758091.757292,1
4,34.1525,0.462393,34.66,1934500.5,1708758092.807292,1
4,-59.795,0.45727,34.65,1942402.0,1708758093.507292,1
4,-60.413333,0.45727,34.66,1947572.0,1708758094.265625,1
4,-60.295,0.458551,34.66,1950957.0,1708758095.782292,1
4,32.33,0.45727,34.66,1942435.5,1708758096.015625,1
4,35.0425,0.453427,34.65,1936509.0,1708758098.523958,1
4,-59.0675,0.453427,34.65,1948784.5,1708758099.048958,1
4,29.44,0.454708,34.63,1933536.0,1708758099.515625,1
4,52.2,0.455989,34.65,1928309.0,1708758100.273958,1
4,-6.17,0.455989,34.65,1934374.0,1708758100.507292,1
4,14.0875,0.454708,34.65,1937774.0,1708758100.798958,1
4,-18.166667,0.454708,34.65,1935516.0,1708758101.265625,1
4,3.7575,0.454708,34.65,1936158.0,1708758101.557292,1
4,22.97,0.45727,34.65,1924053.0,1708758101.790625,1
4,8.8975,0.453427,34.65,1924642.0,1708758102.023958,1
4,0.9525,0.454708,34.65,1917041.0,1708758102.782292,1
4,-61.773333,0.453427,34.65,1924149.5,1708758103.015625,1
4,34.7275,0.455989,34.66,1904947.5,1708758104.007292,1
4,1.0125,0.455989,34.65,1903345.5,1708758104.298958,1
4,-43.77,0.455989,34.65,1913308.5,1708758104.532292,1
4,32.06,0.454708,34.65,1915834.0,1708758104.765625,1
4,-6.8225,0.455989,34.65,1912517.0,1708758105.057292,1
4,-31.45,0.458551,34.65,1917290.0,1708758105.290625,1
4,8.94,0.453427,34.65,1906554.0,1708758105.757292,1
4,-19.8075,0.453427,34.65,1911696.0,1708758106.048958,1
4,-3.97,0.452147,34.65,1903825.0,1708758106.515625,1
4,4.0275,0.454708,34.65,1896689.0,1708758107.273958,1
4,-62.9575,0.453427,34.65,1902293.0,1708758107.507292,1
4,38.4025,0.453427,34.65,1894273.0,1708758107.798958,1
4,7.4375,0.455989,34.65,1892946.0,1708758108.032292,1
4,11.1875,0.455989,34.63,1893652.0,1708758108.790625,1
4,-61.9675,0.455989,34.63,1900580.5,1708758109.023958,1
4,11.475,0.45727,34.65,1891380.5,1708758109.548958,1
4,-52.3775,0.454708,34.63,1899654.5,1708758110.540625,1
4,30.4075,0.454708,34.63,1909299.5,1708758110.773958,1
4,12.2625,0.455989,34.63,1905910.0,1708758111.007292,1
4,-9.1725,0.459832,34.65,1910052.0,1708758111.298958,1
4,-18.603333,0.475202,34.65,1900121.0,1708758111.765625,1
4,24.7325,0.473921,34.63,1903256.0,1708758112.290625,1
4,28.88,0.470079,34.63,1914525.0,1708758112.757292,1
4,-41.62,0.463674,34.63,1909187.0,1708758113.282292,1
4,55.85,0.461113,34.63,1904382.0,1708758113.807292,1
4,55.1225,0.458551,34.63,1921961.0,1708758114.273958,1
4,-28.62,0.458551,34.63,1910733.0,1708758114.507292,1
4,-137.94,0.455989,34.63,1911132.0,1708758114.798958,1
4,10.056667,0.45727,34.63,1903188.0,1708758115.265625,1
4,51.2925,0.455989,34.63,1914637.5,1708758115.790625,1
4,16.1825,0.459832,34.63,1902982.5,1708758116.023958,1
4,39.965,0.459832,34.63,1935603.5,1708758117.773958,1
4,19.965,0.455989,34.63,1944164.0,1708758118.007292,1
4,-81.765,0.455989,34.63,1943221.5,1708758118.298958,1
4,25.31,0.454708,34.63,1935087.5,1708758118.532292,1
4,12.33,0.452147,34.65,1914106.0,1708758119.523958,1
4,-68.85,0.452147,34.65,1923688.0,1708758119.757292,1
4,35.3975,0.459832,34.65,1988329.0,1708758121.507292,1
4,-47.9125,0.462393,34.65,1991108.0,1708758121.798958,1
4,51.05,0.447023,34.65,2002435.5,1708758122.265625,1
4,112.3425,0.462393,34.65,2009271.5,1708758122.790625,1
4,4.6175,0.468798,34.65,2014053.0,1708758123.023958,1
4,12.4475,0.475202,34.61,2021738.5,1708758123.548958,1
4,-33.816667,0.499539,34.61,2018277.5,1708758124.015625,1
6,-9.479091,0.661235,32.81,1967816.25,1611470310.775,1
6,170.656364,0.639459,32.81,1980544.8,1611470311.125,1
6,57.459167,0.638178,32.83,1987460.25,1611470311.3,1
6,47.356667,0.64202,32.83,2083452.8,1611470312.175,1
6,46.368182,0.635616,32.79,2152393.4,1611470313.4,1
6,-23.820909,0.64202,32.81,2190188.0,1611470314.275,1
6,-12.510909,0.649706,32.81,2232952.4,1611470315.15,1
6,-20.937273,0.644582,32.81,2235744.25,1611470315.325,1
6,-5.144545,0.640739,32.81,2241661.0,1611470315.85,1
6,-13.734545,0.630492,32.81,2293714.75,1611470318.125,1
6,2.035,0.635616,32.81,2295930.75,1611470318.3,1
6,4.052727,0.631773,32.81,2280511.5,1611470318.65,1
6,-7.216364,0.633054,32.81,2284451.6,1611470318.825,1
6,6.665,0.633054,32.81,2294708.75,1611470319.175,1
6,2.303636,0.625368,32.79,2292138.2,1611470319.875,1
6,-17.638333,0.625368,32.79,2293859.5,1611470320.05,1
6,8.019091,0.622806,32.79,2285778.5,1611470320.4,1
6,-18.048182,0.624087,32.79,2285472.75,1611470320.575,1
6,-13.125833,0.621525,32.79,2270391.25,1611470320.925,1
6,-30.307273,0.615121,32.79,2276473.6,1611470321.275,1
6,72.951818,0.616401,32.79,2280718.8,1611470321.625,1
6,-4.505455,0.602311,32.79,2277808.4,1611470323.025,1
6,4.853636,0.60103,32.79,2267224.25,1611470323.375,1
6,15.556667,0.597187,32.79,2258719.8,1611470323.55,1
6,13.81,0.599749,32.79,2265991.0,1611470324.075,1
6,12.675455,0.597187,32.77,2273621.5,1611470324.6,1
6,25.718333,0.60103,32.81,2262008.0,1611470325.3,1
6,8.817273,0.612559,32.79,2237838.8,1611470326.35,1
6,4.943333,0.625368,32.79,2267075.25,1611470327.05,1
6,-14.828182,0.626649,32.79,2199839.0,1611470329.15,1
6,-23.4025,0.624087,32.79,2209416.0,1611470329.675,1
6,13.495833,0.64202,32.79,2195893.5,1611470330.55,1
6,16.613636,0.64202,32.79,2182404.4,1611470331.075,1
6,-27.6425,0.64202,32.81,2170720.25,1611470331.425,1
6,78.763636,0.620244,32.77,2172967.6,1611470333.875,1
6,-50.083636,0.616401,32.79,2162304.25,1611470334.575,1
6,-63.5675,0.608716,32.79,2110535.6,1611470335.8,1
6,-14.266364,0.598468,32.77,2146442.6,1611470336.325,1
6,11.034545,0.60103,32.79,2151407.25,1611470337.375,1
6,-10.686364,0.599749,32.79,2130461.0,1611470337.9,1
6,-5.768333,0.599749,32.77,2134920.25,1611470338.425,1
6,-33.917273,0.60103,32.77,2109410.0,1611470338.6,1
6,-64.779167,0.592064,32.79,2146361.25,1611470340.175,1
6,13.714167,0.590783,32.79,2139049.25,1611470341.05,1
6,-12.189091,0.593345,32.79,2123314.0,1611470341.4,1
6,9.873636,0.590783,32.79,2114463.25,1611470341.575,1
6,-15.659091,0.594625,32.79,2143875.25,1611470343.15,1
6,-2.73,0.594625,32.77,2147773.8,1611470343.325,1
6,-4.66,0.592064,32.77,2140104.4,1611470343.675,1
6,-31.918182,0.594625,32.77,2130803.75,1611470343.85,1
6,-9.108182,0.589502,32.77,2150267.4,1611470345.6,1
6,48.785,0.588221,32.79,2149801.0,1611470346.3,1
6,14.575455,0.58694,32.79,2159422.25,1611470346.65,1
6,3.865455,0.579254,32.79,2164861.0,1611470347.35,1
6,17.626364,0.577973,32.79,2168034.0,1611470347.875,1
6,21.445455,0.583097,32.75,2166783.25,1611470348.575,1
6,-19.23,0.588221,32.79,2166603.5,1611470349.625,1
6,-32.261818,0.585659,32.79,2163194.5,1611470350.15,1
6,-2.904167,0.577973,32.77,2152582.0,1611470350.675,1
6,-23.120833,0.570287,32.77,2154651.0,1611470351.55,1
6,4.367273,0.579254,32.77,2167795.0,1611470351.9,1
6,-18.153636,0.576692,32.77,2173662.0,1611470352.075,1
6,-37.720833,0.569007,32.79,2172904.25,1611470353.3,1
6,6.221818,0.562602,32.79,2164049.5,1611470353.825,1
6,-0.034167,0.562602,32.79,2165618.2,1611470354.175,1
6,26.330833,0.56004,32.77,2179229.6,1611470355.05,1
6,-45.855833,0.565164,32.77,2187717.0,1611470355.925,1
6,-23.496364,0.566445,32.79,2148923.25,1611470357.15,1
6,-24.523636,0.563883,32.77,2141862.2,1611470357.325,1
6,37.429167,0.553635,32.77,2171776.25,1611470358.55,1
6,-8.300833,0.548511,32.77,2168049.0,1611470359.425,1
6,-30.867273,0.54595,32.77,2169411.0,1611470359.6,1
6,-9.2325,0.554916,32.79,2132525.6,1611470360.3,1
6,-28.594545,0.552354,32.79,2187572.5,1611470360.825,1
6,-54.470909,0.551073,32.75,2193262.75,1611470361.35,1
6,14.760909,0.551073,32.75,2197372.5,1611470361.525,1
6,-3.261667,0.54595,32.75,2193307.0,1611470362.05,1
6,80.6875,0.54723,32.77,2184076.75,1611470362.925,1
6,7.365455,0.544669,32.77,2160654.6,1611470364.85,1
6,-33.412727,0.543388,32.77,2163665.5,1611470365.025,1
6,70.43,0.542107,32.79,2164748.8,1611470365.9,1
6,-54.955833,0.538264,32.79,2172344.4,1611470366.425,1
6,-24.518182,0.535702,32.79,2165946.25,1611470366.6,1
6,5.409167,0.531859,32.79,2163075.8,1611470367.3,1
6,21.550909,0.53314,32.77,2177008.0,1611470368.525,1
6,34.570833,0.53314,32.77,2192272.75,1611470369.05,1
6,20.759091,0.531859,32.79,2195676.6,1611470369.575,1
6,-115.161818,0.530578,32.77,2183430.0,1611470370.625,1
6,-7.077273,0.529297,32.77,2203111.5,1611470371.15,1
6,-29.234167,0.530578,32.77,2200434.25,1611470371.675,1
6,21.053636,0.531859,32.77,2203899.8,1611470372.025,1
6,-34.569091,0.530578,32.79,2200047.6,1611470372.375,1
6,9.365833,0.524173,32.75,2190831.8,1611470373.425,1
6,13.894545,0.528016,32.75,2194155.0,1611470373.775,1
6,-30.265833,0.520331,32.81,2150115.0,1611470376.05,1
6,-2.953636,0.513926,32.79,2150699.75,1611470376.4,1
6,-25.995455,0.516488,32.77,2161718.0,1611470377.275,1
6,30.816364,0.510083,32.77,2159414.6,1611470377.625,1
6,2.67,0.50624,32.77,2159409.5,1611470377.8,1
6,156.58,0.50624,32.79,2175370.4,1611470379.55,1
6,-36.513636,0.504959,32.77,2171258.0,1611470381.125,1
6,28.125833,0.510083,32.77,2173075.25,1611470381.3,1
6,-5.496364,0.501116,32.77,2183384.4,1611470381.825,1
6,113.1275,0.501116,32.77,2176351.75,1611470382.175,1
6,-64.580909,0.502397,32.79,2180067.2,1611470382.35,1
6,17.923636,0.493431,32.77,2173163.75,1611470383.4,1
6,-19.24,0.501116,32.77,2150257.5,1611470384.1,1
6,32.930909,0.508802,32.79,2149205.25,1611470387.6,1
6,11.244545,0.50624,32.79,2144611.0,1611470387.775,1
6,-10.41,0.508802,32.79,2114151.6,1611470388.825,1
6,-21.52,0.508802,32.79,2108700.8,1611470389.35,1
6,-37.262727,0.522892,32.77,2120844.75,1611470390.575,1
6,3.945455,0.513926,32.77,2124247.75,1611470391.1,1
6,12.104545,0.501116,32.79,2131570.0,1611470393.025,1
6,234.485,0.498555,32.79,2151127.6,1611470394.425,1
6,-85.827273,0.497274,32.79,2153270.75,1611470394.775,1
6,21.942727,0.494712,32.79,2164772.25,1611470395.65,1
6,318.95,0.488307,32.79,2181575.0,1611470397.05,1
6,-5.165,0.498555,32.79,2197699.6,1611470399.675,1
6,-51.745833,0.502397,32.81,2180310.8,1611470400.55,1
6,-22.762727,0.485745,32.81,2084855.0,1611470403.525,1
6,-61.198182,0.484464,32.81,2081735.8,1611470403.875,1
6,-2.946364,0.481902,32.79,2133106.25,1611470406.15,1
6,-39.497273,0.481902,32.81,2136601.8,1611470406.325,1
6,9.37,0.485745,32.81,2120615.2,1611470406.675,1
6,-16.359091,0.495993,32.81,2162654.75,1611470407.025,1
6,24.7925,0.495993,32.79,2162810.0,1611470408.425,1
6,-56.434167,0.490869,32.81,2151890.75,1611470409.3,1
6,-36.261667,0.483183,32.81,2194607.6,1611470411.05,1
6,-81.134545,0.493431,32.81,2212893.0,1611470412.275,1
6,-54.309167,0.488307,32.81,2204726.2,1611470412.8,1
6,14.053636,0.487026,32.81,2197602.0,1611470413.15,1
6,14.915,0.485745,32.83,2190011.0,1611470413.675,1
6,-25.252727,0.490869,32.83,2180746.2,1611470413.85,1
6,-29.28,0.490869,32.83,2187979.25,1611470414.025,1
6,-66.99,0.483183,32.81,2180516.5,1611470414.9,1
6,26.125455,0.480621,32.81,2137097.2,1611470416.125,1
6,2.454545,0.488307,32.81,2100294.4,1611470416.65,1
6,36.0325,0.498555,32.81,2117889.0,1611470417.175,1
6,-4.244167,0.499835,32.81,2111229.2,1611470418.05,1
6,41.429091,0.495993,32.81,2085629.0,1611470418.575,1
6,-41.003636,0.499835,32.81,2085854.0,1611470419.275,1
6,16.658182,0.49215,32.83,2112358.4,1611470420.85,1
6,-17.685455,0.489588,32.83,2088655.25,1611470421.025,1
6,-31.940909,0.490869,32.81,2087295.0,1611470421.375,1
6,-6.11,0.494712,32.83,2150975.0,1611470423.3,1
6,22.46,0.494712,32.83,2157816.6,1611470423.65,1
6,11.285455,0.49215,32.83,2155332.25,1611470423.825,1
6,-74.420833,0.490869,32.83,2162390.6,1611470424.175,1
6,-57.073636,0.490869,32.81,2159912.25,1611470424.35,1
6,148.684545,0.481902,32.81,2165008.75,1611470424.875,1
6,278.133333,0.483183,32.81,2161375.2,1611470425.05,1
6,5.287273,0.480621,32.81,2168999.8,1611470426.1,1
6,-6.282727,0.489588,32.81,2183703.25,1611470427.325,1
6,-4.499091,0.487026,32.83,2178071.8,1611470428.9,1
6,-49.959091,0.478059,32.83,2182389.25,1611470429.075,1
6,-23.1325,0.480621,32.81,2151977.2,1611470429.425,1
6,-8.796364,0.483183,32.81,2177542.0,1611470430.125,1
6,-2.390909,0.483183,32.83,2180843.25,1611470430.65,1
6,-10.288182,0.487026,32.83,2179982.0,1611470431.35,1
6,-38.110833,0.480621,32.83,2178051.75,1611470432.05,1
6,21.78,0.481902,32.79,2175439.25,1611470432.4,1
6,31.885,0.478059,32.79,2164577.75,1611470432.925,1
6,-4.778182,0.478059,32.83,2151501.75,1611470433.275,1
6,18.413333,0.474217,32.83,2139126.0,1611470433.8,1
6,30.788182,0.47934,32.83,2106782.0,1611470434.325,1
6,35.310833,0.49215,32.81,2119872.75,1611470435.55,1
6,0.939167,0.49215,32.83,2116192.4,1611470436.425,1
6,3.227273,0.490869,32.83,2152471.5,1611470437.65,1
6,36.997273,0.490869,32.83,2154111.0,1611470437.825,1
6,164.307273,0.489588,32.83,2143040.25,1611470438.525,1
6,-72.708333,0.487026,32.83,2132472.0,1611470439.05,1
6,0.876364,0.488307,32.83,2126047.25,1611470439.4,1
6,-44.299167,0.488307,32.83,2125611.75,1611470439.925,1
6,25.261818,0.487026,32.83,2123806.2,1611470440.1,1
6,-67.575455,0.489588,32.83,2125466.6,1611470440.625,1
6,-1.006364,0.485745,32.83,2135798.25,1611470441.15,1
6,-21.252727,0.488307,32.84,2129817.25,1611470441.325,1
6,1.801667,0.488307,32.84,2134808.25,1611470441.675,1
6,-41.499091,0.487026,32.84,2140116.75,1611470441.85,1
6,3.11,0.487026,32.84,2136588.6,1611470442.025,1
6,-8.089091,0.487026,32.83,2142824.8,1611470442.375,1
6,-38.528333,0.481902,32.83,2149342.75,1611470442.55,1
6,-51.116364,0.481902,32.84,2159359.0,1611470443.775,1
6,22.05,0.483183,32.84,2156260.5,1611470444.125,1
6,3.707273,0.481902,32.84,2157968.4,1611470444.825,1
6,22.849167,0.484464,32.84,2147985.75,1611470445.175,1
6,8.611818,0.490869,32.84,2141776.2,1611470445.35,1
6,-36.896364,0.495993,32.84,2155695.75,1611470445.525,1
6,2.77,0.497274,32.84,2163966.5,1611470445.875,1
6,-72.519167,0.498555,32.84,2162873.0,1611470446.05,1
6,197.883636,0.501116,32.83,2165320.25,1611470446.575,1
6,-34.919091,0.49215,32.83,2167504.0,1611470447.275,1
6,-68.474545,0.490869,32.83,2168998.0,1611470447.625,1
6,-21.836667,0.488307,32.83,2165524.25,1611470447.8,1
6,-2.053333,0.489588,32.81,2130125.6,1611470448.675,1
6,-70.915455,0.487026,32.81,2128385.5,1611470448.85,1
6,-33.558182,0.485745,32.81,2136987.0,1611470449.025,1
6,-114.101667,0.485745,32.84,2163604.2,1611470449.55,1
6,-12.316364,0.484464,32.84,2158810.75,1611470449.9,1
6,0.129091,0.484464,32.84,2166893.6,1611470450.075,1
6,31.344545,0.480621,32.84,2173431.75,1611470450.6,1
6,-11.0925,0.475498,32.84,2152682.0,1611470451.3,1
6,264.104545,0.476778,32.84,2170628.4,1611470451.825,1
6,-53.689167,0.475498,32.84,2178555.0,1611470452.175,1
6,-16.15,0.47934,32.84,2178088.0,1611470452.875,1
6,-59.73,0.485745,32.81,2175215.0,1611470453.575,1
6,137.632727,0.483183,32.81,2188243.25,1611470454.1,1
6,22.923636,0.478059,32.84,2197098.4,1611470455.15,1
6,205.694167,0.483183,32.81,2183066.4,1611470456.55,1
6,-86.584545,0.485745,32.81,2189126.0,1611470456.9,1
6,-27.472727,0.487026,32.81,2182581.8,1611470457.075,1
6,32.630909,0.485745,32.84,2182481.5,1611470458.125,1
6,26.924167,0.480621,32.83,2177119.5,1611470458.3,1
6,17.574167,0.499835,32.84,2151531.5,1611470460.05,1
6,-39.851818,0.494712,32.84,2139282.8,1611470460.4,1
6,-13.113636,0.493431,32.84,2120584.25,1611470460.575,1
6,-127.322727,0.493431,32.84,2058095.0,1611470461.1,1
6,106.532727,0.494712,32.83,2060661.4,1611470461.275,1
6,195.197273,0.49215,32.83,2087140.5,1611470461.625,1
6,-111.513333,0.493431,32.83,2095696.4,1611470461.8,1
6,6.1325,0.487026,32.84,2090733.0,1611470462.675,1
6,-31.174545,0.489588,32.84,2097697.25,1611470463.025,1
6,19.595455,0.494712,32.84,2091958.0,1611470463.375,1
6,-56.1125,0.495993,32.84,2096733.5,1611470463.55,1
6,135.211818,0.503678,32.84,2096681.5,1611470463.9,1
6,-51.28,0.507521,32.84,2098029.2,1611470464.075,1
6,12.021667,0.515207,32.84,2104420.0,1611470464.425,1
6,-8.230833,0.511364,32.84,2105272.25,1611470465.3,1
6,-27.393636,0.501116,32.84,2102218.5,1611470466.35,1
6,61.811818,0.501116,32.84,2109979.0,1611470466.875,1
6,6.809091,0.502397,32.83,2116688.8,1611470467.4,1
6,-12.151818,0.502397,32.83,2119542.5,1611470468.1,1
6,25.751818,0.511364,32.84,2128681.25,1611470469.15,1
6,6.998182,0.513926,32.83,2139866.0,1611470469.85,1
6,-28.736364,0.504959,32.84,2157732.6,1611470471.6,1
6,98.981818,0.513926,32.84,2160101.75,1611470471.775,1
6,6.439091,0.497274,32.84,2151404.0,1611470473.525,1
6,10.373636,0.498555,32.84,2154441.25,1611470473.875,1
6,3.587273,0.501116,32.84,2146485.25,1611470474.575,1
6,5.868333,0.503678,32.84,2138422.5,1611470475.8,1
6,-11.894545,0.501116,32.84,2143502.5,1611470476.15,1
6,47.058182,0.504959,32.84,2133647.8,1611470476.85,1
6,106.076364,0.504959,32.84,2139816.75,1611470477.025,1
6,5.113636,0.507521,32.84,2167819.25,1611470478.075,1
6,-54.749167,0.504959,32.83,2157730.8,1611470479.3,1
