,ID,empatica_bvp,empatica_eda,empatica_temp,samsung_bvp,CL
0,0,7.320000,0.522594,34.930000,2192602.000000,1
1,0,-83.906667,0.518752,34.950000,2161118.000000,1
2,0,1.440000,0.522594,34.950000,2156133.000000,1
3,0,22.335000,0.525156,34.950000,2137444.000000,1
4,0,-3.575000,0.526437,34.910000,2128318.000000,1
5,0,-46.826667,0.530279,34.910000,2128904.000000,1
6,0,-7.790000,0.525156,34.910000,2118429.000000,1
7,0,-8.190000,0.523875,34.910000,2112116.000000,1
8,0,5.700000,0.521313,34.930000,2048402.000000,1
9,0,-9.265000,0.522594,34.930000,2044186.000000,1
10,0,49.456667,0.518752,34.950000,2047149.000000,1
11,0,-47.290000,0.521313,34.950000,2041690.000000,1
12,0,0.570000,0.521313,34.970000,2053464.000000,1
13,0,-29.435000,0.514909,34.970000,2051614.000000,1
14,0,-21.525000,0.522594,34.970000,2051201.000000,1
15,0,76.790000,0.521313,34.970000,2060183.000000,1
16,0,46.656667,0.520033,34.950000,2067569.000000,1
17,0,-19.115000,0.523875,34.930000,2058765.000000,1
18,0,-2.746667,0.520033,34.930000,2087333.000000,1
19,0,36.615000,0.520033,34.950000,2069198.000000,1
20,0,-156.640000,0.521313,34.950000,2081510.000000,1
21,0,-6.475000,0.517471,34.950000,2083182.000000,1
22,0,-12.880000,0.518752,34.990000,2089039.000000,1
23,0,40.810000,0.516190,34.990000,2081796.000000,1
24,0,32.220000,0.514909,34.970000,2071928.000000,1
25,0,-7.300000,0.517471,34.970000,2081737.000000,1
26,0,-43.023333,0.516190,34.970000,2079389.000000,1
27,0,3.205000,0.514909,34.970000,2082907.000000,1
28,0,-9.835000,0.505943,34.990000,2082477.000000,1
29,0,-68.095000,0.508505,34.990000,2079577.000000,1
30,0,28.836667,0.505943,34.990000,2082810.000000,1
31,0,-18.023333,0.504662,34.990000,2086790.000000,1
32,0,35.725000,0.504662,34.990000,2066334.000000,1
33,0,31.836667,0.504662,34.990000,2068913.000000,1
34,0,-64.223333,0.502100,34.990000,2062985.000000,1
35,0,19.830000,0.500820,34.990000,2066032.000000,1
36,0,-7.456667,0.500820,34.990000,2047622.000000,1
37,0,-17.570000,0.500820,34.990000,2058021.000000,1
38,0,76.545000,0.496977,34.990000,2073533.000000,1
39,0,7.143333,0.488011,34.990000,2058906.000000,1
40,0,27.140000,0.489292,34.950000,2068883.000000,1
41,0,48.790000,0.489292,34.950000,2068773.000000,1
42,0,-78.010000,0.490573,34.990000,2081652.000000,1
43,0,-5.750000,0.489292,34.990000,2088758.000000,1
44,0,-5.323333,0.486730,34.970000,2089505.000000,1
45,0,15.466667,0.489292,34.970000,2094810.000000,1
46,0,28.690000,0.488011,34.990000,2093542.000000,1
47,0,-9.210000,0.484168,34.990000,2091693.000000,1
48,0,12.460000,0.486730,34.990000,2102571.000000,1
49,0,41.833333,0.484168,34.990000,2092072.000000,1
50,0,-22.820000,0.482887,34.990000,2069775.000000,1
51,0,3.930000,0.482887,34.990000,2078836.000000,1
52,0,37.890000,0.484168,34.990000,2082023.000000,1
53,0,15.480000,0.481606,34.990000,2083411.000000,1
54,0,-45.743333,0.479045,34.990000,2079251.000000,1
55,0,-11.555000,0.480326,34.990000,2080786.000000,1
56,0,-38.450000,0.481606,34.990000,2052288.000000,1
57,0,42.740000,0.476483,34.990000,2044374.000000,1
58,0,1.780000,0.471360,34.990000,2054020.000000,1
59,0,36.753333,0.471360,34.990000,2074306.000000,1
60,0,72.985000,0.476483,35.000000,2090595.000000,1
61,0,-124.386667,0.477764,34.990000,2091937.000000,1
62,0,14.943333,0.476483,34.990000,2099544.000000,1
63,0,-27.233333,0.477764,34.970000,2114913.000000,1
64,0,19.703333,0.479045,34.970000,2112763.000000,1
65,0,55.535000,0.482887,34.990000,2101912.000000,1
66,0,75.930000,0.481606,34.990000,2097552.000000,1
67,0,-48.765000,0.484168,34.990000,2096841.000000,1
68,0,62.903333,0.485449,34.990000,2095205.000000,1
69,0,6.210000,0.484168,34.990000,2064322.000000,1
70,0,17.006667,0.484168,34.990000,2077601.000000,1
71,0,-3.425000,0.480326,34.990000,2083320.000000,1
72,0,69.410000,0.484168,34.990000,2086740.000000,1
73,0,-15.995000,0.481606,34.990000,2100988.000000,1
74,0,-33.940000,0.482887,35.000000,2095941.000000,1
75,0,20.440000,0.482887,35.000000,2064576.000000,1
76,0,-36.155000,0.479045,35.000000,2057120.000000,1
77,0,36.423333,0.479045,34.990000,2074706.000000,1
78,0,1.675000,0.484168,34.990000,2080418.000000,1
79,0,-4.015000,0.480326,34.970000,2048658.000000,1
80,0,-47.735000,0.476483,34.990000,2039256.000000,1
81,0,55.130000,0.480326,34.990000,2037612.000000,1
82,0,27.985000,0.476483,34.990000,2041200.000000,1
83,0,-130.496667,0.480326,35.000000,2052621.000000,1
84,0,-77.360000,0.482887,35.000000,2047979.000000,1
85,0,-49.440000,0.481606,34.970000,2042578.000000,1
86,0,81.650000,0.481606,34.970000,2029180.000000,1
87,0,106.966667,0.484168,34.990000,2042335.000000,1
88,0,-99.960000,0.486730,34.990000,2043211.000000,1
89,0,16.395000,0.488011,34.970000,2024013.000000,1
90,0,-33.150000,0.485449,34.970000,2012150.000000,1
91,0,40.900000,0.482887,34.990000,2035520.000000,1
92,0,-17.935000,0.485449,34.990000,2058347.000000,1
93,0,21.036667,0.484168,34.990000,2060444.000000,1
94,0,29.890000,0.482887,34.990000,2042908.000000,1
95,0,-43.785000,0.481606,34.970000,2015448.000000,1
96,0,16.883333,0.480326,34.970000,2020574.000000,1
97,0,25.380000,0.479045,34.970000,2019778.000000,1
98,0,30.270000,0.475202,34.970000,2019056.000000,1
99,0,-69.265000,0.475202,34.970000,1998056.000000,1
100,0,34.055000,0.475202,34.970000,2003288.000000,1
101,0,-1.366667,0.472640,34.970000,2005891.000000,1
102,0,19.526667,0.471360,34.970000,2000767.000000,1
103,0,-16.885000,0.473921,34.970000,2005694.000000,1
104,0,-63.573333,0.464955,34.990000,1977918.000000,1
105,0,49.106667,0.464955,34.970000,1975925.000000,1
106,0,-30.800000,0.470079,34.970000,2003637.000000,1
107,0,-37.113333,0.471360,34.970000,2014939.000000,1
108,0,4.680000,0.468798,34.970000,2025691.000000,1
109,0,47.743333,0.468798,34.970000,2037954.000000,1
110,0,-15.915000,0.464955,34.950000,2050010.000000,1
111,0,1.573333,0.462393,34.950000,2076975.000000,1
112,0,16.500000,0.459832,34.950000,2086251.000000,1
113,0,-24.685000,0.458551,34.950000,2085984.000000,1
114,0,7.040000,0.450866,34.950000,2071787.000000,1
115,0,-1.855000,0.454708,34.970000,2067464.000000,1
116,0,31.275000,0.454708,34.970000,2073230.000000,1
117,0,0.796667,0.454708,34.970000,2083801.000000,1
118,0,-4.810000,0.458551,34.970000,2094943.000000,1
119,0,0.150000,0.450866,34.950000,2104498.000000,1
120,0,57.150000,0.452147,34.930000,2118631.000000,1
121,0,37.330000,0.454708,34.930000,2123760.000000,1
122,0,56.280000,0.453427,34.970000,2129810.000000,1
123,0,33.396667,0.453427,34.970000,2135269.000000,1
124,0,-51.500000,0.449585,34.970000,2134426.000000,1
125,0,39.890000,0.452147,34.970000,2135815.000000,1
126,0,-147.305000,0.459832,34.950000,2145273.000000,1
127,0,8.715000,0.461113,34.950000,2152795.000000,1
128,0,-1.420000,0.459832,34.930000,2153587.000000,1
129,0,-34.395000,0.458551,34.930000,2150342.000000,1
130,0,31.055000,0.459832,34.930000,2140021.000000,1
131,0,65.865000,0.455989,34.930000,2144223.000000,1
132,0,-77.765000,0.458551,34.950000,2144931.000000,1
133,0,20.040000,0.453427,34.950000,2145659.000000,1
134,0,17.666667,0.458551,34.950000,2141384.000000,1
135,0,9.960000,0.450866,34.930000,2114484.000000,1
136,0,-28.395000,0.454708,34.930000,2090226.000000,1
137,0,-29.276667,0.454708,34.950000,2110528.000000,1
138,0,52.465000,0.454708,34.950000,2120750.000000,1
139,0,-9.525000,0.457270,34.930000,2122879.000000,1
140,0,25.946667,0.455989,34.930000,2075179.000000,1
141,0,31.120000,0.454708,34.930000,2083006.000000,1
142,0,38.755000,0.450866,34.910000,2077802.000000,1
143,0,53.370000,0.450866,34.930000,2085749.000000,1
144,0,-88.653333,0.452147,34.930000,2091299.000000,1
145,0,-31.880000,0.448304,34.910000,2092301.000000,1
146,0,48.885000,0.447023,34.910000,2097562.000000,1
147,0,-23.305000,0.448304,34.910000,2063777.000000,1
148,0,16.680000,0.447023,34.930000,2069066.000000,1
149,0,12.495000,0.448304,34.930000,2078267.000000,1
150,0,25.906667,0.443180,34.910000,2085850.000000,1
151,0,-7.426667,0.443180,34.890000,2051157.000000,1
152,0,22.153333,0.444461,34.890000,2086644.000000,1
153,0,57.885000,0.440619,34.890000,2088944.000000,1
154,0,-28.416667,0.435495,34.910000,2101423.000000,1
155,0,9.765000,0.440619,34.910000,2106315.000000,1
156,0,-42.820000,0.436776,34.910000,2086080.000000,1
157,0,27.180000,0.435495,34.910000,2073410.000000,1
158,0,-57.480000,0.438057,34.910000,2090394.000000,1
159,0,50.063333,0.438057,34.910000,2094941.000000,1
160,0,23.620000,0.435495,34.910000,2099193.000000,1
161,0,-46.040000,0.434214,34.890000,2086702.000000,1
162,0,33.326667,0.434214,34.890000,2081750.000000,1
163,0,5.113333,0.434214,34.890000,2089280.000000,1
164,0,-35.190000,0.436776,34.890000,2090048.000000,1
165,0,-49.986667,0.434214,34.870000,2114516.000000,1
166,0,33.910000,0.430372,34.870000,2122117.000000,1
167,0,32.363333,0.435495,34.870000,2129690.000000,1
168,0,87.075000,0.432933,34.870000,2133659.000000,1
169,0,-53.953333,0.434214,34.870000,2136572.000000,1
170,0,9.680000,0.434214,34.870000,2140358.000000,1
171,0,19.330000,0.432933,34.870000,2128043.000000,1
172,0,-49.246667,0.432933,34.870000,2127854.000000,1
173,0,18.425000,0.431653,34.840000,2134152.000000,1
174,0,28.755000,0.426529,34.840000,2136540.000000,1
175,0,75.935000,0.427810,34.840000,2124749.000000,1
176,0,-141.730000,0.422687,34.840000,2120250.000000,1
177,0,24.240000,0.421406,34.840000,2123221.000000,1
178,0,32.623333,0.421406,34.840000,2113006.000000,1
179,0,22.935000,0.422687,34.830000,2112723.000000,1
180,0,-46.945000,0.421406,34.830000,2104820.000000,1
181,0,-190.600000,0.420125,34.840000,2097265.000000,1
182,0,33.240000,0.420125,34.840000,2095455.000000,1
183,0,-73.135000,0.425248,34.840000,2095381.000000,1
184,0,37.795000,0.422687,34.840000,2077399.000000,1
185,0,-5.513333,0.421406,34.840000,2080044.000000,1
186,0,-48.576667,0.418844,34.840000,2073713.000000,1
187,0,11.030000,0.422687,34.840000,2077259.000000,1
188,0,19.050000,0.418844,34.830000,2075810.000000,1
189,0,-234.195000,0.415001,34.810000,2073892.000000,1
190,0,-16.095000,0.417563,34.830000,2072265.000000,1
191,0,25.250000,0.413720,34.830000,2076246.000000,1
192,0,34.430000,0.412440,34.810000,2070491.000000,1
193,0,16.540000,0.415001,34.810000,2055591.000000,1
194,0,-21.995000,0.413720,34.830000,2057872.000000,1
195,0,38.015000,0.415001,34.830000,2071041.000000,1
196,0,6.450000,0.409878,34.830000,2074559.000000,1
197,0,31.410000,0.412440,34.830000,2068961.000000,1
198,0,1.993333,0.408597,34.830000,2069869.000000,1
199,0,-0.205000,0.406035,34.810000,2086838.000000,1
200,0,-54.825000,0.408597,34.810000,2090526.000000,1
201,0,-46.925000,0.408597,34.810000,2075539.000000,1
202,0,19.720000,0.408597,34.810000,2078838.000000,1
203,0,14.613333,0.408597,34.810000,2069902.000000,1
204,0,4.860000,0.403474,34.810000,2074832.000000,1
205,0,25.060000,0.406035,34.810000,2086265.000000,1
206,0,-90.150000,0.404754,34.810000,2097549.000000,1
207,0,-55.190000,0.403474,34.790000,2125973.000000,1
208,0,6.185000,0.399631,34.790000,2126861.000000,1
209,0,41.350000,0.400912,34.790000,2133106.000000,1
210,0,14.116667,0.397069,34.770000,2128851.000000,1
211,0,20.025000,0.398350,34.770000,2128260.000000,1
212,0,38.283333,0.399631,34.770000,2130176.000000,1
213,0,30.870000,0.397069,34.770000,2133335.000000,1
214,0,-14.210000,0.397069,34.770000,2129664.000000,1
215,0,-160.240000,0.395788,34.790000,2128433.000000,1
216,0,26.635000,0.394507,34.790000,2129720.000000,1
217,0,14.056667,0.391946,34.790000,2125349.000000,1
218,0,103.965000,0.393227,34.790000,2130626.000000,1
219,0,-33.205000,0.389384,34.770000,2106355.000000,1
220,0,80.120000,0.389384,34.770000,2107695.000000,1
221,0,-24.230000,0.391946,34.770000,2105427.000000,1
222,0,-108.785000,0.389384,34.770000,2110374.000000,1
223,0,19.835000,0.389384,34.750000,2115900.000000,1
224,0,24.395000,0.388103,34.750000,2110442.000000,1
225,0,22.970000,0.385541,34.750000,2111143.000000,1
226,0,-42.590000,0.388103,34.770000,2112984.000000,1
227,0,-24.210000,0.384260,34.770000,2106703.000000,1
228,0,-3.206667,0.388103,34.750000,2074628.000000,1
229,0,35.050000,0.386822,34.770000,2084074.000000,1
230,0,113.886667,0.388103,34.770000,2082364.000000,1
231,0,50.700000,0.386822,34.770000,2086410.000000,1
232,0,-43.906667,0.385541,34.730000,2083180.000000,1
233,0,30.315000,0.385541,34.730000,2089363.000000,1
234,0,-164.320000,0.380418,34.770000,2096274.000000,1
235,0,-24.885000,0.380418,34.750000,2082002.000000,1
236,0,-4.356667,0.379137,34.750000,2083232.000000,1
237,0,-28.865000,0.381699,34.730000,2063571.000000,1
238,0,33.710000,0.380418,34.730000,2075455.000000,1
239,0,18.033333,0.377856,34.730000,2074915.000000,1
240,0,28.225000,0.381699,34.730000,2082534.000000,1
241,0,-1.880000,0.379137,34.730000,2076631.000000,1
242,0,-26.775000,0.374014,34.750000,2087332.000000,1
243,0,-229.015000,0.375294,34.730000,2088984.000000,1
244,0,6.005000,0.374014,34.730000,2097895.000000,1
245,0,-23.810000,0.370171,34.730000,2071173.000000,1
246,0,-12.123333,0.372733,34.730000,2090942.000000,1
247,0,6.085000,0.370171,34.710000,2096661.000000,1
248,0,49.670000,0.371452,34.710000,2110681.000000,1
249,0,13.636667,0.372733,34.710000,2113123.000000,1
250,0,92.260000,0.375294,34.710000,2132870.000000,1
251,0,-90.490000,0.363767,34.730000,2143640.000000,1
252,0,32.205000,0.365047,34.710000,2112425.000000,1
253,0,-24.010000,0.361205,34.710000,2113333.000000,1
254,0,81.966667,0.362486,34.680000,2109953.000000,1
255,0,-18.760000,0.361205,34.680000,2124816.000000,1
256,0,38.755000,0.359924,34.680000,2127511.000000,1
257,0,-41.346667,0.361205,34.680000,2132908.000000,1
258,0,-60.743333,0.357362,34.680000,2142857.000000,1
259,0,19.306667,0.362486,34.680000,2150931.000000,1
260,0,1.815000,0.358643,34.680000,2148561.000000,1
261,0,79.063333,0.356081,34.660000,2154188.000000,1
262,0,-41.266667,0.359924,34.680000,2151603.000000,1
263,0,-14.830000,0.356081,34.680000,2151441.000000,1
264,0,37.656667,0.358643,34.680000,2108415.000000,1
265,0,30.970000,0.356081,34.680000,2108598.000000,1
266,0,0.096667,0.354801,34.680000,2109222.000000,1
267,0,-14.790000,0.353520,34.680000,2082485.000000,1
268,0,10.300000,0.354801,34.660000,2069902.000000,1
269,0,35.385000,0.352239,34.650000,2083230.000000,1
270,0,0.280000,0.354801,34.650000,2078221.000000,1
271,0,21.043333,0.350958,34.660000,2086337.000000,1
272,0,18.235000,0.359924,34.650000,2103956.000000,1
273,0,-98.805000,0.348396,34.650000,2109964.000000,1
274,0,-6.215000,0.347115,34.650000,2115399.000000,1
275,0,28.856667,0.345834,34.650000,2118992.000000,1
276,0,85.960000,0.344554,34.650000,2117769.000000,1
277,0,-2.050000,0.343273,34.650000,2116473.000000,1
278,0,-50.043333,0.345834,34.650000,2113021.000000,1
279,0,29.895000,0.341992,34.650000,2116874.000000,1
280,0,-48.666667,0.345834,34.650000,2113872.000000,1
281,0,34.360000,0.340711,34.650000,2102557.000000,1
282,0,-116.560000,0.341992,34.650000,2121240.000000,1
283,0,-22.920000,0.341992,34.650000,2119471.000000,1
284,0,16.100000,0.341992,34.650000,2124290.000000,1
285,0,12.436667,0.338149,34.630000,2125764.000000,1
286,0,36.110000,0.340711,34.630000,2132736.000000,1
287,0,4.170000,0.339430,34.630000,2116800.000000,1
288,0,-2.743333,0.339430,34.630000,2127749.000000,1
289,0,17.455000,0.339430,34.630000,2128772.000000,1
290,0,18.110000,0.334307,34.630000,2134032.000000,1
291,0,-6.596667,0.335588,34.630000,2110896.000000,1
292,0,-34.310000,0.333026,34.630000,2110632.000000,1
293,0,-1.135000,0.331745,34.610000,2112439.000000,1
294,0,11.690000,0.334307,34.610000,2084088.000000,1
295,0,75.435000,0.334307,34.610000,2097296.000000,1
296,0,24.960000,0.330464,34.630000,2106619.000000,1
297,0,2.565000,0.333026,34.630000,2119654.000000,1
298,0,0.086667,0.333026,34.630000,2127074.000000,1
299,0,35.285000,0.327902,34.590000,2120407.000000,1
300,0,2.006667,0.329183,34.590000,2139438.000000,1
301,0,-50.143333,0.327902,34.570000,2152509.000000,1
302,0,-32.855000,0.329183,34.590000,2170337.000000,1
303,0,-32.833333,0.325341,34.590000,2163575.000000,1
304,0,-10.260000,0.325341,34.590000,2167669.000000,1
305,0,45.490000,0.321498,34.570000,2170348.000000,1
306,0,44.803333,0.321498,34.570000,2169055.000000,1
307,0,-3.645000,0.325341,34.570000,2169298.000000,1
308,0,-22.713333,0.321498,34.590000,2167625.000000,1
309,0,-2.400000,0.320217,34.590000,2169147.000000,1
310,0,26.315000,0.320217,34.590000,2144415.000000,1
311,0,10.580000,0.317655,34.590000,2113741.000000,1
312,0,50.710000,0.318936,34.590000,2113383.000000,1
313,0,-51.146667,0.317655,34.590000,2110298.000000,1
314,0,35.893333,0.317655,34.590000,2113034.000000,1
315,0,19.905000,0.315094,34.570000,2108867.000000,1
316,0,-1.310000,0.316374,34.570000,2090688.000000,1
317,0,-10.066667,0.313813,34.570000,2090278.000000,1
318,0,-37.823333,0.311251,34.570000,2067512.000000,1
319,0,12.565000,0.309970,34.570000,2072300.000000,1
320,0,-7.940000,0.311251,34.570000,2055584.000000,1
321,0,26.066667,0.309970,34.550000,2067518.000000,1
322,0,-38.250000,0.311251,34.550000,2062641.000000,1
323,0,117.836667,0.309970,34.550000,2070469.000000,1
324,0,21.656667,0.308689,34.550000,2070428.000000,1
325,0,14.680000,0.308689,34.550000,2065763.000000,1
326,0,51.125000,0.306128,34.550000,2070222.000000,1
327,0,131.336667,0.303566,34.550000,2067253.000000,1
328,0,-15.580000,0.303566,34.550000,2068577.000000,1
329,0,-3.113333,0.303566,34.550000,2067796.000000,1
330,0,17.930000,0.301004,34.550000,2069614.000000,1
331,0,29.040000,0.303566,34.530000,2074919.000000,1
332,0,-41.576667,0.301004,34.550000,2073450.000000,1
333,0,47.250000,0.299723,34.550000,2076900.000000,1
334,0,35.775000,0.302285,34.550000,2065637.000000,1
335,0,4.423333,0.302285,34.550000,2035220.000000,1
336,0,35.700000,0.298442,34.530000,2051475.000000,1
337,0,14.585000,0.297161,34.550000,2069806.000000,1
338,0,20.536667,0.299723,34.530000,2068776.000000,1
339,0,-21.690000,0.297161,34.530000,2089135.000000,1
340,0,-38.153333,0.297161,34.530000,2094623.000000,1
341,0,7.615000,0.295881,34.530000,2105180.000000,1
342,0,36.260000,0.297161,34.530000,2122130.000000,1
343,0,62.620000,0.295881,34.530000,2117861.000000,1
344,0,105.446667,0.294600,34.500000,2116035.000000,1
345,0,-24.065000,0.292038,34.500000,2118454.000000,1
346,0,-165.755000,0.295881,34.500000,2115034.000000,1
347,0,-14.123333,0.295881,34.500000,2117908.000000,1
348,0,49.370000,0.294600,34.530000,2114532.000000,1
349,0,-14.663333,0.297161,34.530000,2112431.000000,1
350,0,-4.555000,0.297161,34.500000,2122942.000000,1
351,0,5.685000,0.294600,34.500000,2117687.000000,1
352,0,-44.115000,0.295881,34.490000,2120322.000000,1
353,0,119.096667,0.295881,34.490000,2125531.000000,1
354,0,-0.205000,0.293319,34.500000,2147212.000000,1
355,0,-26.046667,0.292038,34.500000,2146005.000000,1
356,0,-51.325000,0.290757,34.490000,2144501.000000,1
357,0,6.373333,0.292038,34.490000,2157400.000000,1
358,0,42.700000,0.288195,34.490000,2159352.000000,1
359,0,1.950000,0.288195,34.490000,2163418.000000,1
360,0,-54.480000,0.290757,34.470000,2154607.000000,1
361,0,18.105000,0.292038,34.470000,2152906.000000,1
362,0,-22.013333,0.286914,34.470000,2138143.000000,1
363,0,34.815000,0.286914,34.490000,2135000.000000,1
364,0,-142.645000,0.288195,34.490000,2135557.000000,1
365,0,-15.320000,0.285634,34.490000,2130099.000000,1
366,0,49.123333,0.288195,34.490000,2108513.000000,1
367,0,-23.113333,0.286914,34.490000,2103550.000000,1
368,0,48.350000,0.290757,34.490000,2122638.000000,1
369,0,-12.793333,0.290757,34.490000,2123205.000000,1
370,0,-47.386667,0.289476,34.490000,2128535.000000,1
371,0,-17.470000,0.286914,34.490000,2105192.000000,1
372,0,12.446667,0.289476,34.490000,2104246.000000,1
373,0,25.310000,0.299723,34.490000,2109579.000000,1
374,0,4.005000,0.285634,34.490000,2108620.000000,1
375,0,-0.463333,0.283072,34.470000,2100710.000000,1
376,0,31.693333,0.284353,34.490000,2064736.000000,1
377,0,22.235000,0.285634,34.470000,2063908.000000,1
378,0,1.100000,0.285634,34.450000,2066422.000000,1
379,0,32.525000,0.284353,34.450000,2073526.000000,1
380,0,98.320000,0.281791,34.470000,2083883.000000,1
381,0,8.150000,0.281791,34.450000,2097643.000000,1
382,0,10.140000,0.284353,34.450000,2061083.000000,1
383,0,-25.543333,0.281791,34.450000,2058276.000000,1
384,0,-233.840000,0.280510,34.470000,2063612.000000,1
385,0,61.290000,0.280510,34.450000,2081946.000000,1
386,0,-99.773333,0.279229,34.470000,2095875.000000,1
387,0,-50.295000,0.279229,34.470000,2097296.000000,1
388,0,18.200000,0.276668,34.450000,2086145.000000,1
389,0,25.963333,0.277948,34.430000,2096935.000000,1
390,0,-168.825000,0.275387,34.430000,2110029.000000,1
391,0,-48.043333,0.288195,34.450000,2111731.000000,1
392,0,1.030000,0.276668,34.430000,2071365.000000,1
393,0,52.210000,0.275387,34.430000,2073786.000000,1
394,0,32.075000,0.276668,34.430000,2104585.000000,1
395,0,-32.525000,0.274106,34.430000,2106171.000000,1
396,0,5.230000,0.275387,34.430000,2112429.000000,1
397,0,-26.035000,0.276668,34.430000,2118376.000000,1
398,0,37.320000,0.274106,34.430000,2129741.000000,1
399,0,46.885000,0.277948,34.430000,2131778.000000,1
400,0,59.640000,0.277948,34.430000,2138508.000000,1
401,0,-148.626667,0.274106,34.430000,2137223.000000,1
402,0,-46.023333,0.274106,34.430000,2140717.000000,1
403,0,0.395000,0.276668,34.430000,2130123.000000,1
404,0,-14.160000,0.274106,34.430000,2115905.000000,1
405,0,34.800000,0.276668,34.430000,2118974.000000,1
406,0,24.273333,0.277948,34.430000,2120312.000000,1
407,0,16.936667,0.276668,34.410000,2100659.000000,1
408,0,13.530000,0.276668,34.410000,2103756.000000,1
409,0,91.536667,0.276668,34.410000,2106210.000000,1
410,0,1.410000,0.274106,34.410000,2102142.000000,1
411,0,-28.160000,0.275387,34.410000,2106017.000000,1
412,0,-17.123333,0.272825,34.410000,2055345.000000,1
413,0,-14.200000,0.275387,34.390000,2064195.000000,1
414,0,5.136667,0.271544,34.390000,2070658.000000,1
415,0,19.443333,0.275387,34.410000,2072108.000000,1
416,0,-15.660000,0.274106,34.410000,2057621.000000,1
417,0,60.230000,0.271544,34.410000,2037829.000000,1
418,0,-150.643333,0.274106,34.390000,2076190.000000,1
419,0,40.940000,0.271544,34.410000,2054537.000000,1
420,0,-34.753333,0.272825,34.410000,2069559.000000,1
421,0,25.393333,0.274106,34.390000,2094296.000000,1
422,0,-9.030000,0.274106,34.390000,2083604.000000,1
423,0,25.270000,0.270263,34.410000,2069998.000000,1
424,0,15.705000,0.270263,34.390000,2090102.000000,1
425,0,-19.986667,0.267701,34.390000,2090001.000000,1
426,0,-8.755000,0.270263,34.390000,2096328.000000,1
427,0,-40.346667,0.268982,34.390000,2094316.000000,1
428,0,10.633333,0.270263,34.390000,2101777.000000,1
429,0,-171.500000,0.267701,34.390000,2103714.000000,1
430,0,-61.626667,0.267701,34.390000,2103277.000000,1
431,0,-62.960000,0.281791,34.370000,2098596.000000,1
432,0,26.320000,0.267701,34.370000,2103748.000000,1
433,0,97.085000,0.265140,34.390000,2106186.000000,1
434,0,-15.426667,0.268982,34.390000,2110041.000000,1
435,0,-127.976667,0.266421,34.390000,2116746.000000,1
436,0,42.166667,0.265140,34.370000,2106313.000000,1
437,0,-111.755000,0.268982,34.390000,2116178.000000,1
438,0,-25.936667,0.268982,34.390000,2092740.000000,1
439,0,45.136667,0.267701,34.390000,2094270.000000,1
440,0,6.820000,0.265140,34.390000,2103246.000000,1
441,0,71.540000,0.265140,34.370000,2108286.000000,1
442,0,-32.086667,0.263859,34.370000,2108458.000000,1
443,0,36.175000,0.263859,34.390000,2110918.000000,1
444,0,15.500000,0.265140,34.340000,2119342.000000,1
445,0,10.880000,0.266421,34.340000,2117525.000000,1
446,0,-10.550000,0.265140,34.390000,2118022.000000,1
447,0,14.933333,0.262578,34.390000,2120135.000000,1
448,0,25.060000,0.266421,34.390000,2114172.000000,1
449,0,-48.033333,0.262578,34.370000,2103332.000000,1
450,0,23.290000,0.262578,34.370000,2104697.000000,1
451,0,24.386667,0.265140,34.340000,2092676.000000,1
452,0,42.865000,0.262578,34.370000,2084420.000000,1
453,0,85.683333,0.262578,34.340000,2089317.000000,1
454,0,-13.610000,0.266421,34.340000,2095494.000000,1
455,0,-84.990000,0.267701,34.340000,2098748.000000,1
456,0,5.050000,0.263859,34.370000,2087874.000000,1
457,0,28.273333,0.265140,34.370000,2090739.000000,1
458,0,5.923333,0.266421,34.370000,2087378.000000,1
459,0,-30.975000,0.263859,34.370000,2086708.000000,1
460,0,28.730000,0.265140,34.390000,2091522.000000,1
461,0,20.530000,0.261297,34.390000,2068703.000000,1
462,0,58.775000,0.263859,34.390000,2086151.000000,1
463,0,55.823333,0.262578,34.370000,2092627.000000,1
464,0,46.400000,0.262578,34.370000,2098468.000000,1
465,0,-86.800000,0.265140,34.340000,2103171.000000,1
466,0,1.266667,0.265140,34.340000,2104626.000000,1
467,0,29.825000,0.261297,34.340000,2082427.000000,1
468,0,16.846667,0.263859,34.370000,2087989.000000,1
469,0,50.875000,0.263859,34.370000,2105878.000000,1
470,0,30.353333,0.262578,34.370000,2104162.000000,1
471,0,-61.210000,0.263859,34.340000,2098573.000000,1
472,0,-3.933333,0.262578,34.340000,2101395.000000,1
473,0,14.625000,0.260016,34.340000,2110633.000000,1
474,0,11.575000,0.262578,34.340000,2114174.000000,1
475,0,47.645000,0.260016,34.340000,2102938.000000,1
476,0,-10.040000,0.265140,34.330000,2051304.000000,1
477,0,-105.573333,0.262578,34.330000,2049318.000000,1
478,0,27.680000,0.263859,34.330000,2065742.000000,1
479,0,90.960000,0.263859,34.330000,2057312.000000,1
480,0,-20.720000,0.262578,34.330000,2049127.000000,1
481,0,10.200000,0.260016,34.330000,2036707.000000,1
482,0,-1.366667,0.262578,34.340000,2013910.000000,1
483,0,20.220000,0.260016,34.330000,1995857.000000,1
484,0,43.285000,0.262578,34.330000,1984786.000000,1
485,0,12.753333,0.256174,34.330000,1971146.000000,1
486,10,-65.680000,0.268998,34.770000,1738217.500000,1
487,10,-11.347500,0.308708,34.770000,1773100.000000,1
488,10,-37.952500,0.288213,34.770000,1794910.000000,1
489,10,-479.402500,0.277965,34.770000,1829982.000000,1
490,10,-138.995000,0.276684,34.770000,1839604.000000,1
491,10,214.875000,0.272841,34.770000,1862937.500000,1
492,10,62.067500,0.274122,34.750000,1870428.000000,1
493,10,-39.777500,0.272841,34.750000,1872188.500000,1
494,10,66.645000,0.274122,34.750000,1913070.500000,1
495,10,-1.402500,0.272841,34.750000,1922118.500000,1
496,10,-12.420000,0.274122,34.730000,1897545.000000,1
497,10,59.702500,0.277965,34.730000,1895557.000000,1
498,10,-55.165000,0.275403,34.750000,1905688.000000,1
499,10,-31.920000,0.277965,34.750000,1904046.000000,1
500,10,13.485000,0.277965,34.770000,1901483.000000,1
501,10,-24.227500,0.277965,34.770000,1898543.000000,1
502,10,31.375000,0.279246,34.770000,1896334.500000,1
503,10,-29.830000,0.275403,34.750000,1874675.000000,1
504,10,0.077500,0.272841,34.750000,1867653.000000,1
505,10,-39.230000,0.275403,34.770000,1843609.000000,1
506,10,-45.852500,0.275403,34.770000,1836198.500000,1
507,10,40.755000,0.272841,34.770000,1837062.000000,1
508,10,58.423333,0.276684,34.730000,1814601.000000,1
509,10,78.380000,0.279246,34.730000,1807026.500000,1
510,10,-9.870000,0.275403,34.730000,1810316.000000,1
511,10,-96.992500,0.276684,34.730000,1799136.500000,1
512,10,-9.845000,0.279246,34.730000,1802696.000000,1
513,10,-19.010000,0.277965,34.730000,1810575.000000,1
514,10,24.765000,0.277965,34.730000,1807305.000000,1
515,10,37.077500,0.279246,34.730000,1813621.000000,1
516,10,-21.580000,0.275403,34.730000,1813081.000000,1
517,10,16.175000,0.277965,34.750000,1854094.000000,1
518,10,14.195000,0.276684,34.750000,1858955.000000,1
519,10,-5.277500,0.297179,34.750000,1853547.000000,1
520,10,-37.280000,0.283089,34.750000,1844275.500000,1
521,10,8.245000,0.286932,34.730000,1850304.000000,1
522,10,-24.692500,0.285651,34.730000,1838048.000000,1
523,10,22.820000,0.284370,34.730000,1847978.000000,1
524,10,13.852500,0.281808,34.730000,1856932.500000,1
525,10,30.155000,0.285651,34.730000,1843339.000000,1
526,10,31.835000,0.283089,34.730000,1829483.000000,1
527,10,-7.325000,0.284370,34.730000,1806436.500000,1
528,10,-33.765000,0.281808,34.710000,1796320.000000,1
529,10,-35.202500,0.283089,34.710000,1779120.000000,1
530,10,19.185000,0.280527,34.710000,1776101.000000,1
531,10,-49.057500,0.280527,34.710000,1771030.000000,1
532,10,-89.526667,0.281808,34.730000,1750979.000000,1
533,10,53.282500,0.281808,34.730000,1747253.500000,1
534,10,33.335000,0.283089,34.730000,1750821.500000,1
535,10,46.807500,0.280527,34.710000,1721970.000000,1
536,10,33.060000,0.279246,34.710000,1725960.500000,1
537,10,-36.052500,0.281808,34.710000,1712178.000000,1
538,10,-31.217500,0.283089,34.730000,1749767.000000,1
539,10,9.325000,0.295898,34.730000,1702543.000000,1
540,10,-79.120000,0.293336,34.710000,1689157.500000,1
541,10,-28.287500,0.289494,34.710000,1705724.000000,1
542,10,22.585000,0.289494,34.710000,1693316.000000,1
543,10,3.185000,0.293336,34.710000,1686627.000000,1
544,10,-39.737500,0.290775,34.710000,1684518.000000,1
545,10,37.117500,0.292055,34.710000,1683365.500000,1
546,10,35.530000,0.292055,34.710000,1691239.000000,1
547,10,-33.490000,0.288213,34.710000,1688066.000000,1
548,10,42.345000,0.293336,34.710000,1696725.000000,1
549,10,-48.502500,0.293336,34.710000,1710737.000000,1
550,10,-75.487500,0.290775,34.710000,1710050.500000,1
551,10,21.230000,0.286932,34.710000,1719813.000000,1
552,10,-22.265000,0.303584,34.710000,1729030.000000,1
553,10,33.810000,0.289494,34.710000,1743402.000000,1
554,10,-22.840000,0.292055,34.710000,1757723.000000,1
555,10,-30.805000,0.292055,34.680000,1738201.500000,1
556,10,89.850000,0.290775,34.680000,1735172.000000,1
557,10,-19.707500,0.290775,34.680000,1738568.000000,1
558,10,-42.212500,0.289494,34.680000,1730411.000000,1
559,10,47.937500,0.304865,34.680000,1731750.000000,1
560,10,-57.425000,0.299741,34.680000,1725760.500000,1
561,10,46.240000,0.299741,34.680000,1724453.500000,1
562,10,22.312500,0.301022,34.680000,1730367.000000,1
563,10,-42.240000,0.303584,34.710000,1728354.000000,1
564,10,33.325000,0.302303,34.710000,1728142.000000,1
565,10,28.927500,0.298460,34.710000,1741908.000000,1
566,10,-39.012500,0.301022,34.710000,1757520.000000,1
567,10,32.775000,0.302303,34.680000,1747932.000000,1
568,10,31.040000,0.303584,34.680000,1754816.000000,1
569,10,47.125000,0.306146,34.680000,1750114.000000,1
570,10,-52.715000,0.311270,34.680000,1758761.500000,1
571,10,-99.422500,0.329203,34.680000,1744051.000000,1
572,10,35.655000,0.322798,34.680000,1740584.000000,1
573,10,5.070000,0.317674,34.680000,1745695.500000,1
574,10,59.613333,0.315113,34.680000,1726750.000000,1
575,10,54.197500,0.315113,34.680000,1733726.000000,1
576,10,-80.022500,0.309989,34.710000,1716848.000000,1
577,10,49.797500,0.313832,34.710000,1723355.000000,1
578,10,43.570000,0.307427,34.660000,1750818.000000,1
579,10,27.365000,0.309989,34.660000,1754079.000000,1
580,10,-29.555000,0.311270,34.660000,1753362.000000,1
581,10,35.310000,0.311270,34.680000,1795353.500000,1
582,10,-71.327500,0.311270,34.680000,1762467.000000,1
583,10,46.207500,0.312551,34.660000,1758719.000000,1
584,10,36.370000,0.315113,34.660000,1764049.500000,1
585,10,-96.752500,0.315113,34.660000,1747523.000000,1
586,10,-77.185000,0.317674,34.680000,1736594.000000,1
587,10,45.922500,0.318955,34.680000,1736612.000000,1
588,10,-1.515000,0.318955,34.680000,1737710.000000,1
589,10,-67.322500,0.317674,34.660000,1744250.000000,1
590,10,35.032500,0.316393,34.660000,1744405.500000,1
591,10,-34.345000,0.315113,34.660000,1733630.500000,1
592,10,-21.277500,0.313832,34.660000,1745192.000000,1
593,10,16.747500,0.313832,34.660000,1745723.000000,1
594,10,-35.912500,0.311270,34.660000,1736609.000000,1
595,10,17.095000,0.308708,34.660000,1741550.000000,1
596,10,15.230000,0.313832,34.660000,1751431.000000,1
597,10,-24.105000,0.312551,34.660000,1747814.000000,1
598,10,19.537500,0.311270,34.650000,1755218.500000,1
599,10,-27.000000,0.311270,34.650000,1741540.500000,1
600,10,60.190000,0.311270,34.650000,1742534.500000,1
601,10,-15.685000,0.307427,34.650000,1752774.000000,1
602,10,-75.410000,0.309989,34.650000,1745066.000000,1
603,10,40.132500,0.311270,34.650000,1747125.000000,1
604,10,65.930000,0.309989,34.650000,1742916.000000,1
605,10,29.950000,0.309989,34.650000,1749402.000000,1
606,10,-44.942500,0.309989,34.630000,1741538.500000,1
607,10,37.422500,0.306146,34.630000,1754847.500000,1
608,10,-16.327500,0.309989,34.630000,1744126.000000,1
609,10,43.237500,0.309989,34.650000,1729549.500000,1
610,10,-43.372500,0.306146,34.650000,1725330.000000,1
611,10,29.646667,0.307427,34.650000,1725214.000000,1
612,10,-79.992500,0.307427,34.650000,1742393.500000,1
613,10,30.030000,0.311270,34.650000,1750145.000000,1
614,10,-35.297500,0.311270,34.650000,1731130.000000,1
615,10,25.565000,0.307427,34.650000,1741876.500000,1
616,10,3.940000,0.307427,34.650000,1754982.000000,1
617,10,-76.050000,0.309989,34.650000,1743972.500000,1
618,10,40.235000,0.308708,34.630000,1756809.000000,1
619,10,-54.222500,0.311270,34.650000,1756148.000000,1
620,10,14.625000,0.308708,34.630000,1782604.000000,1
621,10,-55.152500,0.308708,34.630000,1806148.000000,1
622,10,35.053333,0.309989,34.610000,1784460.000000,1
623,10,53.110000,0.307427,34.610000,1761827.000000,1
624,10,-29.645000,0.309989,34.610000,1765075.000000,1
625,10,-26.760000,0.311270,34.610000,1755326.500000,1
626,10,2.587500,0.307427,34.630000,1755153.000000,1
627,10,-60.787500,0.312551,34.630000,1686446.000000,1
628,10,4.792500,0.311270,34.610000,1685416.000000,1
629,10,63.507500,0.313832,34.630000,1662352.500000,1
630,10,-105.715000,0.309989,34.630000,1643183.000000,1
631,10,-94.772500,0.315113,34.610000,1620049.000000,1
632,10,1.390000,0.311270,34.610000,1634888.000000,1
633,10,-6.795000,0.312551,34.630000,1630134.500000,1
634,10,54.950000,0.309989,34.630000,1644981.500000,1
635,10,8.412500,0.311270,34.630000,1650321.000000,1
636,10,66.967500,0.315113,34.590000,1656569.500000,1
637,10,50.232500,0.313832,34.590000,1669619.000000,1
638,10,-50.777500,0.315113,34.610000,1674559.000000,1
639,10,40.160000,0.313832,34.610000,1691316.000000,1
640,10,19.552500,0.313832,34.590000,1690615.000000,1
641,10,29.307500,0.311270,34.610000,1690386.500000,1
642,10,37.752500,0.315113,34.610000,1696827.000000,1
643,10,-34.977500,0.316393,34.610000,1695861.000000,1
644,10,-21.170000,0.311270,34.570000,1715363.000000,1
645,10,-76.415000,0.312551,34.570000,1700854.000000,1
646,10,14.260000,0.316393,34.570000,1721861.000000,1
647,10,-35.845000,0.312551,34.610000,1722215.000000,1
648,10,-56.980000,0.315113,34.610000,1700167.000000,1
649,10,50.817500,0.317674,34.610000,1708672.000000,1
650,10,8.006667,0.329203,34.610000,1715617.000000,1
651,10,92.335000,0.315113,34.590000,1713397.500000,1
652,10,1.875000,0.315113,34.590000,1736049.000000,1
653,10,56.117500,0.318955,34.590000,1737585.000000,1
654,10,19.015000,0.317674,34.590000,1746473.000000,1
655,10,35.190000,0.318955,34.590000,1718850.000000,1
656,10,16.297500,0.318955,34.590000,1703144.000000,1
657,10,30.065000,0.315113,34.590000,1712657.500000,1
658,10,-57.957500,0.315113,34.590000,1693294.000000,1
659,10,15.015000,0.318955,34.590000,1695627.000000,1
660,10,78.737500,0.321517,34.570000,1682933.000000,1
661,10,43.403333,0.317674,34.570000,1695716.000000,1
662,10,-50.512500,0.317674,34.570000,1680829.000000,1
663,10,-8.612500,0.317674,34.590000,1679026.500000,1
664,10,-1.545000,0.320236,34.590000,1702470.000000,1
665,10,-88.642500,0.320236,34.590000,1690165.000000,1
666,10,61.817500,0.321517,34.590000,1696006.500000,1
667,10,-81.047500,0.324079,34.590000,1707446.000000,1
668,10,61.142500,0.324079,34.590000,1705461.500000,1
669,10,42.557500,0.324079,34.590000,1720184.000000,1
670,10,-21.742500,0.325360,34.590000,1733767.000000,1
671,10,12.412500,0.326641,34.590000,1737411.000000,1
672,10,-31.352500,0.327922,34.590000,1759228.000000,1
673,10,58.377500,0.324079,34.570000,1746343.000000,1
674,10,-24.670000,0.324079,34.570000,1754901.000000,1
675,10,-36.060000,0.326641,34.570000,1736565.000000,1
676,10,47.432500,0.326641,34.570000,1737732.000000,1
677,10,16.435000,0.327922,34.570000,1695583.000000,1
678,10,11.367500,0.324079,34.570000,1690177.000000,1
679,10,102.297500,0.324079,34.570000,1672902.000000,1
680,10,51.270000,0.324079,34.570000,1684745.000000,1
681,10,-41.982500,0.324079,34.570000,1678514.000000,1
682,10,49.967500,0.321517,34.570000,1688174.000000,1
683,10,-39.910000,0.320236,34.570000,1706345.000000,1
684,10,-16.720000,0.322798,34.570000,1720456.500000,1
685,10,-98.905000,0.322798,34.570000,1735765.000000,1
686,10,-1.410000,0.324079,34.550000,1761711.000000,1
687,10,-91.822500,0.321517,34.550000,1754993.000000,1
688,10,47.060000,0.324079,34.550000,1756059.000000,1
689,10,-9.510000,0.318955,34.550000,1751293.000000,1
690,10,-33.442500,0.320236,34.570000,1755830.000000,1
691,10,-84.507500,0.321517,34.570000,1734028.500000,1
692,10,8.372500,0.317674,34.530000,1731866.000000,1
693,10,-78.232500,0.318955,34.530000,1707370.000000,1
694,10,49.070000,0.317674,34.530000,1692598.500000,1
695,10,-63.402500,0.320236,34.530000,1688250.000000,1
696,10,74.813333,0.318955,34.550000,1676866.000000,1
697,10,30.372500,0.317674,34.550000,1689311.000000,1
698,10,94.427500,0.322798,34.550000,1686219.500000,1
699,10,-74.235000,0.318955,34.530000,1692917.000000,1
700,10,51.480000,0.318955,34.530000,1694666.000000,1
701,10,-42.450000,0.321517,34.530000,1715326.000000,1
702,10,-85.475000,0.318955,34.530000,1719629.500000,1
703,10,49.240000,0.322798,34.530000,1705019.000000,1
704,10,23.157500,0.322798,34.530000,1708772.000000,1
705,10,-115.575000,0.320236,34.530000,1706833.000000,1
706,10,16.215000,0.336889,34.530000,1713342.500000,1
707,10,26.712500,0.321517,34.530000,1713672.000000,1
708,10,77.730000,0.325360,34.500000,1700237.000000,1
709,10,-86.402500,0.326641,34.500000,1707353.500000,1
710,10,111.772500,0.322798,34.500000,1706457.500000,1
711,10,-22.685000,0.325360,34.500000,1716276.000000,1
712,10,-161.155000,0.325360,34.500000,1707687.000000,1
713,10,106.257500,0.326641,34.500000,1710570.500000,1
714,10,-145.732500,0.324079,34.500000,1711684.500000,1
715,10,25.277500,0.325360,34.500000,1723721.000000,1
716,10,36.107500,0.324079,34.530000,1730455.500000,1
717,10,-74.793333,0.324079,34.530000,1721431.500000,1
718,10,32.912500,0.326641,34.530000,1726717.000000,1
719,10,-2.070000,0.329203,34.500000,1739229.500000,1
720,10,-96.030000,0.329203,34.500000,1727879.000000,1
721,10,65.740000,0.326641,34.500000,1731349.500000,1
722,10,3.840000,0.326641,34.500000,1741088.000000,1
723,10,47.670000,0.330484,34.500000,1736643.000000,1
724,10,-36.685000,0.327922,34.500000,1736807.500000,1
725,10,27.982500,0.329203,34.530000,1750923.000000,1
726,10,-0.260000,0.330484,34.530000,1757478.000000,1
727,10,32.035000,0.327922,34.530000,1762192.000000,1
728,10,42.865000,0.329203,34.500000,1748931.000000,1
729,10,29.367500,0.329203,34.500000,1752388.000000,1
730,10,-92.070000,0.330484,34.500000,1741455.000000,1
731,10,-3.887500,0.330484,34.530000,1769729.000000,1
732,10,58.360000,0.330484,34.490000,1730233.500000,1
733,10,-43.086667,0.331765,34.500000,1707816.000000,1
734,10,10.622500,0.331765,34.500000,1702583.000000,1
735,10,63.907500,0.331765,34.500000,1730256.000000,1
736,10,18.367500,0.335608,34.490000,1726105.000000,1
737,10,-69.952500,0.331765,34.500000,1712977.500000,1
738,10,82.427500,0.331765,34.500000,1712316.000000,1
739,10,34.630000,0.336889,34.500000,1716668.500000,1
740,10,-47.526667,0.338170,34.490000,1736687.500000,1
741,10,51.472500,0.335608,34.490000,1744976.000000,1
742,10,45.150000,0.334327,34.490000,1769265.000000,1
743,10,-6.742500,0.335608,34.490000,1782799.000000,1
744,10,-87.115000,0.335608,34.490000,1770485.000000,1
745,10,86.017500,0.336889,34.490000,1777081.000000,1
746,10,54.070000,0.335608,34.470000,1818786.000000,1
747,10,19.920000,0.345855,34.470000,1795218.500000,1
748,10,-46.390000,0.348417,34.470000,1793867.000000,1
749,10,60.857500,0.350979,34.470000,1771178.000000,1
750,10,28.530000,0.350979,34.500000,1770317.000000,1
751,10,77.565000,0.350979,34.500000,1783081.000000,1
752,10,32.577500,0.366350,34.490000,1760271.000000,1
753,10,-21.522500,0.366350,34.490000,1767091.000000,1
754,10,44.732500,0.371474,34.470000,1761696.000000,1
755,10,-0.215000,0.372755,34.470000,1777401.000000,1
756,10,55.813333,0.375317,34.470000,1752127.000000,1
757,10,61.820000,0.386845,34.490000,1794381.000000,1
758,10,19.972500,0.371474,34.490000,1787620.000000,1
759,10,-65.815000,0.371474,34.470000,1772532.000000,1
760,10,-82.450000,0.366350,34.470000,1750762.500000,1
761,10,56.735000,0.367631,34.470000,1734646.000000,1
762,10,-37.565000,0.368912,34.470000,1728335.500000,1
763,10,20.362500,0.365069,34.470000,1726248.000000,1
764,10,-48.975000,0.366350,34.470000,1727938.000000,1
765,10,64.782500,0.371474,34.470000,1721499.000000,1
766,10,24.282500,0.368912,34.470000,1732685.500000,1
767,10,50.422500,0.367631,34.470000,1711943.000000,1
768,10,-19.045000,0.367631,34.470000,1711410.000000,1
769,10,-21.806667,0.365069,34.470000,1705996.000000,1
770,10,73.047500,0.363788,34.470000,1710426.000000,1
771,10,7.547500,0.365069,34.470000,1704331.500000,1
772,10,-117.617500,0.366350,34.470000,1693699.000000,1
773,10,67.115000,0.366350,34.470000,1714369.000000,1
774,10,10.350000,0.365069,34.470000,1705984.000000,1
775,10,-87.487500,0.372755,34.470000,1705894.000000,1
776,10,-130.352500,0.380441,34.470000,1712142.000000,1
777,10,89.277500,0.379160,34.470000,1714010.000000,1
778,10,25.525000,0.379160,34.470000,1724330.500000,1
779,10,-118.027500,0.376598,34.470000,1706732.000000,1
780,10,58.795000,0.383003,34.470000,1723990.500000,1
781,10,63.237500,0.380441,34.450000,1706640.500000,1
782,10,70.150000,0.385565,34.450000,1704270.000000,1
783,10,36.952500,0.385565,34.450000,1716350.000000,1
784,10,-54.337500,0.380441,34.450000,1709793.000000,1
785,10,93.127500,0.380441,34.450000,1710437.000000,1
786,10,18.307500,0.384284,34.450000,1722379.500000,1
787,10,-103.097500,0.384284,34.450000,1715059.000000,1
788,10,73.235000,0.384284,34.450000,1715156.000000,1
789,10,-24.865000,0.385565,34.450000,1705455.000000,1
790,10,55.922500,0.384284,34.450000,1689404.000000,1
791,10,26.917500,0.380441,34.470000,1704213.000000,1
792,10,-82.690000,0.380441,34.470000,1720699.500000,1
793,10,40.297500,0.383003,34.470000,1719199.000000,1
794,10,-60.025000,0.384284,34.450000,1702741.000000,1
795,10,61.445000,0.380441,34.450000,1696572.500000,1
796,10,84.147500,0.380441,34.450000,1702539.000000,1
797,10,40.135000,0.383003,34.430000,1691429.000000,1
798,10,99.285000,0.385565,34.450000,1675965.500000,1
799,10,46.260000,0.384284,34.450000,1686458.500000,1
800,10,-48.425000,0.385565,34.450000,1667033.000000,1
801,10,32.943333,0.381722,34.470000,1670816.000000,1
802,10,-59.950000,0.384284,34.430000,1722891.500000,1
803,10,7.873333,0.393250,34.430000,1737406.000000,1
804,10,-32.017500,0.394531,34.430000,1749517.000000,1
805,10,-38.267500,0.399655,34.450000,1760612.000000,1
806,10,-29.436667,0.397093,34.450000,1749184.000000,1
807,10,-13.617500,0.399655,34.450000,1770025.500000,1
808,10,11.495000,0.399655,34.450000,1782079.000000,1
809,10,-128.080000,0.404779,34.430000,1762305.000000,1
810,10,65.312500,0.404779,34.430000,1775160.500000,1
811,10,-135.500000,0.400936,34.430000,1760982.500000,1
812,10,2.002500,0.402217,34.430000,1762505.000000,1
813,10,-74.855000,0.402217,34.430000,1737995.000000,1
814,10,150.545000,0.404779,34.430000,1734621.000000,1
815,10,-94.732500,0.406060,34.430000,1742969.000000,1
816,10,5.632500,0.408622,34.430000,1704820.000000,1
817,10,-74.162500,0.409902,34.430000,1685020.500000,1
818,10,87.390000,0.406060,34.430000,1678862.500000,1
819,10,-28.187500,0.407341,34.430000,1659611.500000,1
820,10,67.687500,0.409902,34.430000,1659732.500000,1
821,10,-145.935000,0.406060,34.430000,1630565.500000,1
822,10,81.627500,0.404779,34.450000,1637727.500000,1
823,10,50.322500,0.407341,34.450000,1650830.500000,1
824,10,-74.120000,0.412464,34.450000,1627773.000000,1
825,10,49.332500,0.408622,34.450000,1632242.000000,1
826,10,-58.407500,0.404779,34.430000,1670557.500000,1
827,10,25.022500,0.408622,34.430000,1664086.500000,1
828,10,-34.900000,0.408622,34.430000,1669695.000000,1
829,10,49.040000,0.407341,34.430000,1698849.000000,1
830,10,-25.207500,0.408622,34.430000,1698067.000000,1
831,10,68.130000,0.411183,34.430000,1675642.000000,1
832,10,38.032500,0.413745,34.430000,1680800.000000,1
833,10,100.357500,0.413745,34.430000,1661672.500000,1
834,10,-125.512500,0.409902,34.430000,1658885.000000,1
835,10,-14.667500,0.409902,34.410000,1687476.500000,1
836,10,59.482500,0.412464,34.410000,1690503.000000,1
837,10,-21.950000,0.408622,34.410000,1714108.000000,1
838,10,-116.550000,0.407341,34.410000,1708542.000000,1
839,10,52.240000,0.407341,34.410000,1712844.000000,1
840,10,34.905000,0.408622,34.410000,1728306.000000,1
841,10,27.197500,0.409902,34.410000,1754983.000000,1
842,10,-74.192500,0.406060,34.410000,1761214.000000,1
843,10,-130.406667,0.409902,34.410000,1766667.000000,1
844,10,80.027500,0.408622,34.410000,1765776.500000,1
845,10,-114.232500,0.403498,34.410000,1769566.000000,1
846,10,68.077500,0.406060,34.410000,1761334.000000,1
847,10,14.710000,0.407341,34.410000,1770636.000000,1
848,10,30.292500,0.406060,34.390000,1762669.500000,1
849,10,-128.840000,0.403498,34.430000,1747961.000000,1
850,10,13.590000,0.406060,34.430000,1763925.000000,1
851,10,-121.257500,0.407341,34.430000,1760324.000000,1
852,10,-51.247500,0.404779,34.410000,1769535.000000,1
853,10,-117.257500,0.408622,34.410000,1744462.500000,1
854,10,87.215000,0.409902,34.390000,1741176.000000,1
855,10,104.180000,0.417588,34.390000,1725856.000000,1
856,10,1.877500,0.413745,34.390000,1724327.000000,1
857,10,-34.610000,0.416307,34.390000,1711983.500000,1
858,10,70.262500,0.416307,34.390000,1709934.000000,1
859,10,14.056667,0.418869,34.390000,1719996.500000,1
860,10,93.117500,0.418869,34.410000,1709828.000000,1
861,10,-112.340000,0.416307,34.410000,1711186.000000,1
862,10,55.685000,0.427836,34.390000,1734780.000000,1
863,10,8.597500,0.427836,34.390000,1748289.000000,1
864,10,-32.885000,0.432959,34.390000,1761806.500000,1
865,10,-108.957500,0.432959,34.390000,1772983.000000,1
866,10,-107.882500,0.421431,34.390000,1753091.000000,1
867,10,88.090000,0.422712,34.390000,1747193.000000,1
868,10,24.827500,0.422712,34.390000,1748458.000000,1
869,10,-118.866667,0.423993,34.390000,1728570.000000,1
870,10,42.030000,0.422712,34.390000,1714686.500000,1
871,10,-121.130000,0.422712,34.390000,1695717.000000,1
872,10,16.700000,0.426555,34.390000,1698474.500000,1
873,10,-91.650000,0.426555,34.390000,1685092.000000,1
874,10,-2.026667,0.423993,34.370000,1700888.000000,1
875,10,-132.450000,0.429117,34.370000,1689676.000000,1
876,10,85.352500,0.431679,34.390000,1692393.000000,1
877,10,77.372500,0.427836,34.390000,1716332.500000,1
878,10,47.955000,0.432959,34.390000,1738928.000000,1
879,10,-16.912500,0.430398,34.390000,1743572.000000,1
880,10,100.642500,0.430398,34.370000,1717965.000000,1
881,10,-17.157500,0.435521,34.370000,1706570.000000,1
882,10,-41.165000,0.432959,34.370000,1707708.000000,1
883,10,40.100000,0.438083,34.370000,1681520.500000,1
884,10,56.247500,0.438083,34.370000,1662297.000000,1
885,10,48.870000,0.434240,34.370000,1663781.000000,1
886,10,46.332500,0.439364,34.390000,1698159.500000,1
887,10,5.545000,0.440645,34.390000,1669655.000000,1
888,10,51.642500,0.436802,34.390000,1667088.000000,1
889,10,30.672500,0.443207,34.390000,1644708.500000,1
890,10,-76.662500,0.441926,34.390000,1658162.000000,1
891,10,84.562500,0.438083,34.390000,1660040.500000,1
892,10,-8.617500,0.438083,34.390000,1668979.500000,1
893,10,55.880000,0.443207,34.370000,1635960.000000,1
894,10,-51.096667,0.447050,34.390000,1639214.000000,1
895,10,-139.740000,0.447050,34.390000,1615967.500000,1
896,10,68.867500,0.445769,34.390000,1619476.500000,1
897,10,-1.527500,0.441926,34.390000,1634965.000000,1
898,10,-154.633333,0.444488,34.410000,1621662.500000,1
899,10,87.825000,0.444488,34.390000,1628519.000000,1
900,10,39.132500,0.440645,34.390000,1643357.000000,1
901,10,-102.715000,0.444488,34.370000,1668640.000000,1
902,10,23.356667,0.441926,34.370000,1680242.000000,1
903,10,22.277500,0.447050,34.370000,1689068.000000,1
904,10,89.050000,0.447050,34.370000,1686071.000000,1
905,10,87.175000,0.447050,34.390000,1689342.500000,1
906,10,-101.535000,0.444488,34.390000,1687198.000000,1
907,10,-10.195000,0.445769,34.370000,1695649.000000,1
908,10,6.810000,0.447050,34.370000,1736659.000000,1
909,10,-120.170000,0.444488,34.370000,1732294.000000,1
910,10,90.683333,0.444488,34.370000,1743322.000000,1
911,10,26.200000,0.445769,34.340000,1758709.000000,1
912,10,47.747500,0.458578,34.390000,1743816.000000,1
913,10,-12.502500,0.457297,34.390000,1745193.500000,1
914,10,-105.080000,0.457297,34.390000,1725517.500000,1
915,10,86.520000,0.457297,34.390000,1724495.500000,1
916,10,7.645000,0.461140,34.390000,1738556.000000,1
917,10,4.577500,0.458578,34.390000,1749248.000000,1
918,10,29.610000,0.471388,34.390000,1756593.500000,1
919,10,95.705000,0.484197,34.390000,1757321.000000,1
920,10,42.753333,0.481635,34.370000,1766835.000000,1
921,10,-48.030000,0.481635,34.370000,1759934.000000,1
922,10,3.265000,0.484197,34.370000,1750310.000000,1
923,10,-45.940000,0.488040,34.390000,1748951.000000,1
924,10,-6.302500,0.482916,34.390000,1744886.000000,1
925,10,-23.293333,0.481635,34.390000,1748877.000000,1
926,10,70.247500,0.482916,34.370000,1738944.500000,1
927,10,24.525000,0.480354,34.370000,1750869.500000,1
928,10,-118.595000,0.473950,34.370000,1730645.000000,1
929,10,-34.485000,0.466264,34.370000,1737949.000000,1
930,10,-144.195000,0.459859,34.370000,1722855.500000,1
931,10,79.047500,0.458578,34.370000,1723569.000000,1
932,10,18.797500,0.461140,34.370000,1729144.500000,1
933,10,-123.270000,0.459859,34.390000,1715428.500000,1
934,10,58.927500,0.458578,34.390000,1713430.500000,1
935,10,89.070000,0.452174,34.390000,1706015.000000,1
936,10,-57.210000,0.456017,34.370000,1710160.000000,1
937,10,-120.180000,0.454736,34.370000,1714897.000000,1
938,10,82.417500,0.454736,34.370000,1694319.000000,1
939,10,42.387500,0.450893,34.340000,1682529.000000,1
940,10,-111.110000,0.452174,34.340000,1666026.000000,1
941,10,60.130000,0.449612,34.330000,1679904.000000,1
942,10,89.550000,0.450893,34.370000,1668209.000000,1
943,10,-79.022500,0.450893,34.370000,1667371.000000,1
944,10,47.352500,0.448331,34.370000,1671610.000000,1
945,10,1.910000,0.456017,34.390000,1685977.000000,1
946,10,-33.455000,0.454736,34.370000,1702350.500000,1
947,10,-40.842500,0.454736,34.370000,1685603.500000,1
948,10,38.367500,0.459859,34.370000,1689612.000000,1
949,10,-133.895000,0.454736,34.370000,1684455.000000,1
950,10,82.497500,0.452174,34.370000,1691180.000000,1
951,10,36.370000,0.452174,34.370000,1707262.000000,1
952,10,-40.027500,0.464983,34.340000,1764631.000000,1
953,10,88.570000,0.484197,34.340000,1751322.500000,1
954,10,42.167500,0.484197,34.340000,1756782.000000,1
955,10,-45.176667,0.482916,34.340000,1752812.000000,1
956,10,63.437500,0.475231,34.340000,1764661.500000,1
957,10,-6.835000,0.473950,34.340000,1765469.000000,1
958,10,41.975000,0.467545,34.340000,1749537.500000,1
959,10,-46.257500,0.488040,34.370000,1771810.500000,1
960,10,77.592500,0.489321,34.370000,1783043.000000,1
961,10,62.117500,0.493164,34.340000,1794556.000000,1
962,10,-19.737500,0.488040,34.340000,1802313.000000,1
963,10,29.870000,0.485478,34.390000,1794132.500000,1
964,10,51.452500,0.488040,34.340000,1817366.000000,1
965,10,-30.980000,0.470107,34.340000,1819103.000000,1
966,10,33.997500,0.470107,34.340000,1824659.000000,1
967,10,-64.560000,0.472669,34.390000,1825971.000000,1
968,10,-104.875000,0.472669,34.390000,1805528.000000,1
969,10,-52.775000,0.470107,34.390000,1651112.000000,1
970,10,-185.205000,0.473950,34.340000,1591118.000000,1
971,10,147.425000,0.479074,34.340000,1596121.000000,1
972,2,27.932500,0.331805,33.340000,2101303.000000,1
973,2,-76.897500,0.386892,33.340000,2086744.000000,1
974,2,-1.516667,0.340773,33.340000,2093692.500000,1
975,2,-260.525000,0.340773,33.330000,2099530.500000,1
976,2,73.120000,0.342054,33.330000,2097498.500000,1
977,2,100.697500,0.354865,33.340000,2110641.000000,1
978,2,224.495000,0.356146,33.340000,2117966.500000,1
979,2,55.437500,0.340773,33.340000,2124664.000000,1
980,2,-340.566667,0.353584,33.370000,2136322.000000,1
981,2,239.847500,0.357427,33.370000,2135457.000000,1
982,2,14.395000,0.358708,33.370000,2135938.000000,1
983,2,-43.283333,0.353584,33.370000,2134118.000000,1
984,2,208.210000,0.352302,33.370000,2123509.500000,1
985,2,119.262500,0.353584,33.370000,2126246.000000,1
986,2,-140.105000,0.342054,33.370000,2105252.500000,1
987,2,-92.662500,0.361270,33.390000,2065700.500000,1
988,2,-116.867500,0.361270,33.390000,2083990.500000,1
989,2,261.990000,0.365113,33.390000,2104222.500000,1
990,2,92.247500,0.361270,33.370000,2157266.000000,1
991,2,-206.417500,0.368957,33.370000,2165587.000000,1
992,2,-80.465000,0.372800,33.340000,2200581.000000,1
993,2,-51.267500,0.371519,33.340000,2191721.000000,1
994,2,175.722500,0.353584,33.370000,2240928.000000,1
995,2,-125.245000,0.349740,33.370000,2259323.000000,1
996,2,-85.902500,0.349740,33.370000,2268641.000000,1
997,2,-450.922500,0.349740,33.340000,2275247.000000,1
998,2,70.317500,0.352302,33.340000,2265681.000000,1
999,2,44.672500,0.351021,33.340000,2267780.500000,1
1000,2,15.870000,0.347178,33.370000,2269426.500000,1
1001,2,-62.475000,0.345897,33.370000,2272971.000000,1
1002,2,76.912500,0.343335,33.370000,2253107.000000,1
1003,2,63.197500,0.340773,33.370000,2259604.000000,1
1004,2,175.385000,0.342054,33.370000,2245041.000000,1
1005,2,-6.720000,0.340773,33.370000,2239642.500000,1
1006,2,103.822500,0.343335,33.340000,2232632.000000,1
1007,2,-23.775000,0.353584,33.340000,2181596.000000,1
1008,2,-180.885000,0.345897,33.340000,2156018.000000,1
1009,2,197.560000,0.345897,33.340000,2132018.500000,1
1010,2,79.767500,0.231879,33.340000,2124775.500000,1
1011,2,-92.370000,0.335648,33.340000,2133048.000000,1
1012,2,-338.120000,0.336929,33.330000,2115696.000000,1
1013,2,136.047500,0.334367,33.310000,2107992.000000,1
1014,2,47.400000,0.335648,33.310000,2096121.000000,1
1015,2,-173.253333,0.340773,33.310000,2105400.000000,1
1016,2,-78.352500,0.326680,33.330000,2099286.000000,1
1017,2,192.037500,0.333086,33.330000,2089587.000000,1
1018,2,-12.225000,0.335648,33.330000,2094248.000000,1
1019,2,-164.113333,0.334367,33.330000,2102525.000000,1
1020,2,115.785000,0.338210,33.330000,2088312.000000,1
1021,2,-34.445000,0.344616,33.330000,2093766.500000,1
1022,2,-79.083333,0.351021,33.310000,2104206.500000,1
1023,2,-444.882500,0.349740,33.310000,2115535.500000,1
1024,2,-30.402500,0.342054,33.290000,2091147.000000,1
1025,2,-122.330000,0.343335,33.290000,2091950.000000,1
1026,2,-42.682500,0.344616,33.290000,2083081.000000,1
1027,2,-169.405000,0.343335,33.290000,2094384.000000,1
1028,2,197.346667,0.344616,33.270000,2081520.000000,1
1029,2,103.590000,0.342054,33.270000,2084847.000000,1
1030,2,-19.815000,0.338210,33.270000,2085625.000000,1
1031,2,-50.460000,0.340773,33.270000,2090579.000000,1
1032,2,322.193333,0.347178,33.290000,2106788.000000,1
1033,2,-111.327500,0.348459,33.290000,2129930.000000,1
1034,2,112.260000,0.345897,33.270000,2126323.500000,1
1035,2,75.747500,0.343335,33.270000,2120575.000000,1
1036,2,48.740000,0.340773,33.270000,2125752.500000,1
1037,2,-68.077500,0.334367,33.270000,2126655.000000,1
1038,2,23.467500,0.336929,33.270000,2116468.000000,1
1039,2,-113.937500,0.336929,33.270000,2128256.000000,1
1040,2,-61.426667,0.348459,33.250000,2101566.000000,1
1041,2,95.257500,0.343335,33.270000,2106396.000000,1
1042,2,-76.697500,0.342054,33.270000,2116695.000000,1
1043,2,120.642500,0.345897,33.270000,2112355.000000,1
1044,2,-64.915000,0.353584,33.250000,2121506.000000,1
1045,2,131.557500,0.356146,33.250000,2117031.000000,1
1046,2,64.907500,0.383049,33.250000,2125024.000000,1
1047,2,177.420000,0.385611,33.250000,2127423.000000,1
1048,2,24.902500,0.363832,33.270000,2159379.000000,1
1049,2,-21.030000,0.374081,33.230000,2170852.500000,1
1050,2,-38.727500,0.374081,33.230000,2164323.000000,1
1051,2,64.530000,0.370238,33.230000,2172660.000000,1
1052,2,38.532500,0.363832,33.230000,2155961.000000,1
1053,2,-87.382500,0.368957,33.250000,2145279.500000,1
1054,2,-119.823333,0.362551,33.230000,2134880.000000,1
1055,2,94.060000,0.361270,33.250000,2095533.500000,1
1056,2,107.037500,0.367676,33.230000,2079079.000000,1
1057,2,-119.315000,0.368957,33.230000,2083746.000000,1
1058,2,-36.992500,0.365113,33.210000,2081681.000000,1
1059,2,80.487500,0.368957,33.210000,2072742.000000,1
1060,2,-71.837500,0.366395,33.210000,2082619.000000,1
1061,2,60.440000,0.363832,33.210000,2097646.000000,1
1062,2,-41.447500,0.365113,33.210000,2108038.000000,1
1063,2,35.003333,0.365113,33.210000,2114341.000000,1
1064,2,-54.797500,0.362551,33.210000,2131809.000000,1
1065,2,-91.995000,0.376643,33.210000,2138548.000000,1
1066,2,-184.450000,0.376643,33.210000,2142903.500000,1
1067,2,66.717500,0.381768,33.180000,2155570.000000,1
1068,2,-90.360000,0.383049,33.180000,2163645.500000,1
1069,2,111.490000,0.374081,33.210000,2158056.000000,1
1070,2,-67.735000,0.374081,33.210000,2159461.000000,1
1071,2,-41.347500,0.372800,33.210000,2158830.500000,1
1072,2,116.882500,0.367676,33.210000,2157639.500000,1
1073,2,-2.942500,0.367676,33.210000,2161628.000000,1
1074,2,30.855000,0.371519,33.180000,2168830.000000,1
1075,2,-54.880000,0.366395,33.210000,2159057.000000,1
1076,2,118.435000,0.365113,33.210000,2140668.000000,1
1077,2,53.920000,0.370238,33.180000,2185113.000000,1
1078,2,-377.965000,0.361270,33.210000,2195645.000000,1
1079,2,-68.572500,0.359989,33.210000,2191129.000000,1
1080,2,105.417500,0.358708,33.210000,2206383.500000,1
1081,2,54.940000,0.363832,33.180000,2206399.000000,1
1082,2,-102.150000,0.362551,33.180000,2206037.500000,1
1083,2,98.057500,0.375362,33.210000,2177185.000000,1
1084,2,-130.112500,0.372800,33.210000,2158189.000000,1
1085,2,46.295000,0.366395,33.180000,2133875.000000,1
1086,2,-76.370000,0.371519,33.180000,2108057.000000,1
1087,2,90.666667,0.374081,33.180000,2104228.000000,1
1088,2,-99.395000,0.372800,33.180000,2096404.000000,1
1089,2,-11.562500,0.366395,33.180000,2079843.500000,1
1090,2,-126.620000,0.367676,33.180000,2094489.000000,1
1091,2,119.607500,0.363832,33.160000,2107920.000000,1
1092,2,75.312500,0.362551,33.160000,2117175.500000,1
1093,2,47.747500,0.365113,33.160000,2127074.000000,1
1094,2,-89.317500,0.363832,33.160000,2123835.000000,1
1095,2,-41.977500,0.362551,33.160000,2129531.000000,1
1096,2,-288.440000,0.368957,33.180000,2130808.000000,1
1097,2,21.252500,0.366395,33.180000,2136681.000000,1
1098,2,-12.412500,0.366395,33.160000,2131462.000000,1
1099,2,64.695000,0.365113,33.160000,2136258.000000,1
1100,2,-98.652500,0.372800,33.160000,2124187.000000,1
1101,2,-99.693333,0.363832,33.160000,2062275.000000,1
1102,2,75.837500,0.363832,33.160000,2065735.000000,1
1103,2,-3.597500,0.362551,33.160000,2054298.500000,1
1104,2,53.702500,0.363832,33.160000,2052594.500000,1
1105,2,-148.985000,0.367676,33.160000,2035889.500000,1
1106,2,47.852500,0.366395,33.160000,2052557.500000,1
1107,2,-75.205000,0.368957,33.160000,2061237.000000,1
1108,2,97.990000,0.368957,33.160000,2068944.000000,1
1109,2,211.263333,0.363832,33.160000,2085855.000000,1
1110,2,58.082500,0.366395,33.180000,2126094.000000,1
1111,2,-229.632500,0.363832,33.180000,2125447.500000,1
1112,2,33.635000,0.366395,33.180000,2136020.500000,1
1113,2,23.780000,0.365113,33.180000,2132352.500000,1
1114,2,103.912500,0.357427,33.150000,2099260.500000,1
1115,2,22.970000,0.363832,33.150000,2097275.000000,1
1116,2,130.247500,0.361270,33.160000,2094498.000000,1
1117,2,87.185000,0.356146,33.160000,2108312.000000,1
1118,2,-120.360000,0.357427,33.160000,2111810.000000,1
1119,2,-173.460000,0.354865,33.160000,2151050.500000,1
1120,2,80.930000,0.361270,33.160000,2175711.000000,1
1121,2,97.490000,0.354865,33.150000,2210268.500000,1
1122,2,125.357500,0.356146,33.150000,2188244.000000,1
1123,2,160.405000,0.357427,33.150000,2170337.000000,1
1124,2,79.730000,0.358708,33.150000,2106525.500000,1
1125,2,-561.125000,0.353584,33.150000,2070484.000000,1
1126,2,185.886667,0.353584,33.150000,2058454.000000,1
1127,2,-74.400000,0.358708,33.130000,2041114.500000,1
1128,2,73.317500,0.358708,33.130000,2029630.000000,1
1129,2,-40.350000,0.353584,33.130000,2040328.000000,1
1130,2,-94.330000,0.354865,33.130000,2035196.000000,1
1131,2,-34.440000,0.359989,33.130000,2053160.000000,1
1132,2,67.840000,0.356146,33.130000,2072457.000000,1
1133,2,-348.920000,0.358708,33.130000,2093922.000000,1
1134,2,81.720000,0.352302,33.130000,2117627.000000,1
1135,2,88.185000,0.354865,33.150000,2133249.000000,1
1136,2,-20.366667,0.352302,33.150000,2141820.500000,1
1137,2,-110.450000,0.351021,33.150000,2139814.000000,1
1138,2,105.045000,0.354865,33.150000,2148270.000000,1
1139,2,50.462500,0.357427,33.150000,2142452.500000,1
1140,2,141.272500,0.354865,33.130000,2139486.000000,1
1141,2,102.362500,0.356146,33.130000,2126141.000000,1
1142,2,111.250000,0.363832,33.130000,2096007.000000,1
1143,2,77.250000,0.358708,33.130000,2086371.000000,1
1144,2,-42.825000,0.356146,33.130000,2079360.000000,1
1145,2,105.917500,0.353584,33.130000,2073573.000000,1
1146,2,-215.192500,0.353584,33.130000,2057244.000000,1
1147,2,-104.430000,0.353584,33.130000,2056839.500000,1
1148,2,-57.180000,0.356146,33.130000,2061151.000000,1
1149,2,115.065000,0.354865,33.110000,2066980.500000,1
1150,2,112.327500,0.357427,33.110000,2069929.500000,1
1151,2,72.040000,0.358708,33.110000,2071839.500000,1
1152,2,-17.560000,0.357427,33.130000,2090566.000000,1
1153,2,38.753333,0.361270,33.130000,2101051.000000,1
1154,2,129.745000,0.356146,33.130000,2106747.500000,1
1155,2,-32.967500,0.354865,33.130000,2104897.000000,1
1156,2,100.732500,0.357427,33.130000,2098635.000000,1
1157,2,-200.302500,0.357427,33.130000,2115287.000000,1
1158,2,-45.207500,0.359989,33.130000,2157419.000000,1
1159,2,-36.540000,0.362551,33.130000,2154040.000000,1
1160,2,32.042500,0.358708,33.130000,2151426.000000,1
1161,2,-220.185000,0.357427,33.130000,2143142.000000,1
1162,2,91.435000,0.357427,33.090000,2144447.500000,1
1163,2,93.145000,0.357427,33.090000,2129346.000000,1
1164,2,-26.493333,0.358708,33.130000,2124049.000000,1
1165,2,105.865000,0.358708,33.130000,2117360.500000,1
1166,2,-132.697500,0.357427,33.130000,2112391.000000,1
1167,2,92.757500,0.363832,33.090000,2072383.000000,1
1168,2,71.240000,0.358708,33.090000,2066670.000000,1
1169,2,-99.690000,0.359989,33.130000,2066023.000000,1
1170,2,80.823333,0.358708,33.130000,2069405.000000,1
1171,2,23.665000,0.359989,33.090000,2089419.000000,1
1172,2,-100.380000,0.357427,33.110000,2092322.500000,1
1173,2,-72.022500,0.358708,33.110000,2112404.000000,1
1174,2,86.102500,0.361270,33.110000,2119926.000000,1
1175,2,59.102500,0.356146,33.110000,2127300.000000,1
1176,2,-66.966667,0.356146,33.090000,2134947.000000,1
1177,2,-134.020000,0.357427,33.090000,2151126.000000,1
1178,2,-44.350000,0.357427,33.090000,2157022.000000,1
1179,2,103.786667,0.359989,33.090000,2162106.000000,1
1180,2,69.037500,0.358708,33.110000,2152478.000000,1
1181,2,79.400000,0.362551,33.090000,2159526.500000,1
1182,2,103.335000,0.361270,33.090000,2125501.500000,1
1183,2,37.402500,0.361270,33.090000,2105422.500000,1
1184,2,-89.020000,0.362551,33.090000,2084753.500000,1
1185,2,28.200000,0.361270,33.090000,2069605.000000,1
1186,2,-156.233333,0.361270,33.090000,2044271.000000,1
1187,2,38.890000,0.363832,33.090000,2046713.000000,1
1188,2,-66.822500,0.361270,33.090000,2045494.500000,1
1189,2,-38.053333,0.359989,33.090000,2055284.000000,1
1190,2,72.862500,0.359989,33.090000,2059378.000000,1
1191,2,-103.367500,0.363832,33.090000,2074614.000000,1
1192,2,73.385000,0.365113,33.090000,2083593.000000,1
1193,2,-66.082500,0.362551,33.090000,2095820.000000,1
1194,2,-70.665000,0.365113,33.090000,2113668.000000,1
1195,2,0.585000,0.363832,33.090000,2154372.000000,1
1196,2,184.857500,0.363832,33.090000,2164941.500000,1
1197,2,-387.212500,0.365113,33.070000,2162008.000000,1
1198,2,193.403333,0.363832,33.090000,2156532.000000,1
1199,2,7.225000,0.362551,33.090000,2154006.000000,1
1200,2,43.940000,0.361270,33.090000,2099094.000000,1
1201,2,-50.580000,0.361270,33.070000,2087358.500000,1
1202,2,-99.852500,0.359989,33.070000,2088037.500000,1
1203,2,-73.957500,0.362551,33.070000,2073806.000000,1
1204,2,-22.690000,0.358708,33.090000,2114058.000000,1
1205,2,129.792500,0.362551,33.090000,2111798.500000,1
1206,2,-106.682500,0.362551,33.070000,2117220.000000,1
1207,2,168.275000,0.363832,33.070000,2116236.000000,1
1208,2,125.157500,0.366395,33.090000,2128298.000000,1
1209,2,34.707500,0.367676,33.090000,2128323.000000,1
1210,2,-73.465000,0.363832,33.050000,2126795.000000,1
1211,2,94.100000,0.359989,33.070000,2131387.000000,1
1212,2,-95.820000,0.361270,33.070000,2130234.500000,1
1213,2,-26.316667,0.362551,33.050000,2128495.000000,1
1214,2,93.837500,0.357427,33.070000,2131714.000000,1
1215,2,0.120000,0.359989,33.070000,2135882.000000,1
1216,2,111.195000,0.359989,33.070000,2127545.000000,1
1217,2,-49.900000,0.363832,33.050000,2121664.500000,1
1218,2,223.727500,0.359989,33.050000,2120080.000000,1
1219,2,-319.675000,0.361270,33.070000,2102143.500000,1
1220,2,161.295000,0.359989,33.070000,2100373.000000,1
1221,2,43.910000,0.361270,33.050000,2097240.000000,1
1222,2,-19.142500,0.359989,33.050000,2085620.500000,1
1223,2,91.957500,0.359989,33.050000,2087927.000000,1
1224,2,94.147500,0.359989,33.070000,2072289.000000,1
1225,2,49.356667,0.359989,33.070000,2063360.000000,1
1226,2,73.130000,0.362551,33.050000,2073158.000000,1
1227,2,-81.265000,0.362551,33.050000,2064025.000000,1
1228,2,113.675000,0.362551,33.070000,2068973.000000,1
1229,2,37.340000,0.357427,33.070000,2065082.000000,1
1230,2,-48.717500,0.356146,33.070000,2066545.000000,1
1231,2,-38.807500,0.361270,33.070000,2085707.000000,1
1232,2,71.422500,0.358708,33.070000,2095601.000000,1
1233,2,-27.960000,0.356146,33.070000,2094193.000000,1
1234,2,-29.077500,0.358708,33.070000,2105631.500000,1
1235,2,41.902500,0.358708,33.050000,2111413.000000,1
1236,2,-77.155000,0.357427,33.050000,2131594.000000,1
1237,2,58.690000,0.358708,33.050000,2128243.000000,1
1238,2,34.170000,0.361270,33.050000,2134976.000000,1
1239,2,-69.465000,0.363832,33.030000,2132165.000000,1
1240,2,52.312500,0.359989,33.030000,2133452.000000,1
1241,2,-13.757500,0.357427,33.030000,2138595.000000,1
1242,2,-9.885000,0.356146,33.030000,2137630.000000,1
1243,2,-118.087500,0.358708,33.070000,2144188.000000,1
1244,2,-96.217500,0.359989,33.070000,2136088.000000,1
1245,2,-49.932500,0.359989,33.030000,2142003.000000,1
1246,2,84.210000,0.361270,33.050000,2133703.000000,1
1247,2,-26.540000,0.366395,33.050000,2133946.000000,1
1248,2,-50.853333,0.356146,33.070000,2111648.000000,1
1249,2,92.870000,0.356146,33.050000,2111539.000000,1
1250,2,202.020000,0.362551,33.070000,2141829.000000,1
1251,2,176.435000,0.358708,33.050000,2166721.000000,1
1252,2,96.553333,0.361270,33.050000,2172605.000000,1
1253,2,152.525000,0.365113,33.050000,2179525.000000,1
1254,2,-195.605000,0.358708,33.030000,2181853.000000,1
1255,2,99.526667,0.361270,33.070000,2147176.000000,1
1256,2,0.602500,0.361270,33.050000,2140240.000000,1
1257,2,-187.205000,0.361270,33.050000,2126122.000000,1
1258,2,116.382500,0.358708,33.050000,2123144.000000,1
1259,2,54.990000,0.362551,33.070000,2101699.000000,1
1260,2,-80.650000,0.362551,33.070000,2081708.000000,1
1261,2,98.565000,0.359989,33.070000,2079134.500000,1
1262,2,-79.545000,0.357427,33.050000,2065804.000000,1
1263,2,-112.812500,0.361270,33.050000,2061778.500000,1
1264,2,109.777500,0.362551,33.050000,2062359.000000,1
1265,2,25.917500,0.356146,33.050000,2065404.000000,1
1266,2,49.482500,0.361270,33.030000,2064954.000000,1
1267,2,86.693333,0.362551,33.050000,2071533.000000,1
1268,2,-13.930000,0.357427,33.050000,2067113.500000,1
1269,2,143.860000,0.359989,33.050000,2071272.000000,1
1270,2,-62.902500,0.361270,33.050000,2078932.000000,1
1271,2,-366.150000,0.362551,33.030000,2073192.000000,1
1272,2,112.935000,0.358708,33.030000,2079753.000000,1
1273,2,34.330000,0.357427,33.030000,2081383.000000,1
1274,2,-78.520000,0.356146,33.030000,2089587.000000,1
1275,2,15.372500,0.365113,33.030000,2117609.500000,1
1276,2,-6.837500,0.361270,33.030000,2118169.000000,1
1277,2,14.857500,0.362551,33.030000,2120774.000000,1
1278,2,22.920000,0.361270,33.030000,2132099.000000,1
1279,2,-109.172500,0.357427,33.050000,2134684.000000,1
1280,2,12.745000,0.359989,33.050000,2138236.000000,1
1281,2,-1.067500,0.358708,33.050000,2146620.000000,1
1282,2,106.567500,0.363832,33.030000,2146764.000000,1
1283,2,52.255000,0.365113,33.030000,2146201.000000,1
1284,2,-37.983333,0.367676,33.030000,2148530.500000,1
1285,2,-17.460000,0.359989,33.030000,2151246.000000,1
1286,2,-27.145000,0.361270,33.030000,2155248.000000,1
1287,2,132.592500,0.361270,33.030000,2157097.000000,1
1288,2,19.723333,0.359989,33.030000,2155229.000000,1
1289,2,83.455000,0.359989,33.050000,2159124.500000,1
1290,2,-149.582500,0.359989,33.050000,2153742.000000,1
1291,2,-114.462500,0.361270,33.050000,2155969.000000,1
1292,2,-52.056667,0.358708,33.000000,2165541.000000,1
1293,2,-26.675000,0.359989,33.030000,2164893.000000,1
1294,2,-167.062500,0.363832,33.030000,2153911.000000,1
1295,2,111.813333,0.362551,33.000000,2158048.500000,1
1296,2,62.665000,0.361270,33.000000,2174165.000000,1
1297,2,-87.760000,0.361270,33.000000,2169205.500000,1
1298,2,95.973333,0.365113,33.000000,2143190.000000,1
1299,2,26.297500,0.365113,33.030000,2156323.000000,1
1300,2,89.977500,0.371519,33.030000,2161766.500000,1
1301,2,-194.983333,0.363832,33.050000,2129241.000000,1
1302,2,-18.067500,0.376643,33.000000,2124295.000000,1
1303,2,48.795000,0.361270,33.000000,2119638.000000,1
1304,2,48.445000,0.363832,33.000000,2127057.000000,1
1305,2,120.917500,0.358708,33.030000,2107799.000000,1
1306,2,87.536667,0.363832,33.000000,2112561.000000,1
1307,2,28.287500,0.361270,33.000000,2105811.000000,1
1308,2,20.292500,0.362551,33.030000,2117894.000000,1
1309,2,62.627500,0.370238,33.030000,2112392.000000,1
1310,2,63.676667,0.363832,33.030000,2116172.000000,1
1311,2,-82.967500,0.361270,33.000000,2115111.000000,1
1312,2,-329.480000,0.362551,33.000000,2109301.000000,1
1313,2,125.532500,0.362551,33.000000,2113557.000000,1
1314,2,-9.447500,0.363832,33.000000,2127491.000000,1
1315,2,-38.605000,0.362551,33.000000,2125257.000000,1
1316,2,-5.047500,0.363832,33.000000,2132157.500000,1
1317,2,42.165000,0.365113,33.000000,2124616.000000,1
1318,2,50.745000,0.367676,33.000000,2126789.000000,1
1319,2,88.442500,0.365113,33.000000,2123886.000000,1
1320,2,-8.882500,0.365113,33.000000,2126531.000000,1
1321,2,35.772500,0.365113,33.030000,2130533.500000,1
1322,2,79.780000,0.375362,33.030000,2135481.000000,1
1323,2,30.335000,0.361270,33.030000,2129103.000000,1
1324,2,-160.945000,0.361270,33.030000,2122700.000000,1
1325,2,111.562500,0.365113,33.030000,2115469.000000,1
1326,2,66.405000,0.361270,33.030000,2127747.000000,1
1327,2,-14.257500,0.363832,32.990000,2128923.500000,1
1328,2,1.926667,0.363832,32.990000,2134310.000000,1
1329,2,90.425000,0.361270,32.990000,2132519.000000,1
1330,2,80.165000,0.363832,33.000000,2133690.000000,1
1331,2,-30.467500,0.365113,33.000000,2132471.000000,1
1332,2,145.383333,0.365113,33.000000,2134944.000000,1
1333,2,-222.132500,0.362551,33.000000,2131168.500000,1
1334,2,44.690000,0.362551,33.000000,2133165.000000,1
1335,2,61.270000,0.363832,33.000000,2125333.000000,1
1336,2,-15.892500,0.362551,33.000000,2124550.000000,1
1337,2,-77.590000,0.359989,33.000000,2123427.500000,1
1338,2,55.985000,0.358708,33.000000,2119930.000000,1
1339,2,66.392500,0.365113,33.000000,2120158.500000,1
1340,2,-53.080000,0.365113,33.000000,2125127.500000,1
1341,2,113.470000,0.362551,33.000000,2117142.500000,1
1342,2,14.820000,0.363832,33.000000,2122059.500000,1
1343,2,-194.775000,0.362551,32.990000,2116475.500000,1
1344,2,-98.522500,0.362551,32.990000,2121958.000000,1
1345,2,-147.030000,0.359989,32.990000,2118478.000000,1
1346,2,-49.563333,0.358708,32.990000,2127517.000000,1
1347,2,-31.272500,0.365113,32.990000,2134862.000000,1
1348,2,-67.840000,0.365113,32.990000,2129134.000000,1
1349,2,47.062500,0.363832,33.000000,2131802.000000,1
1350,2,-53.712500,0.362551,33.000000,2127036.000000,1
1351,2,96.947500,0.363832,33.000000,2127294.000000,1
1352,2,-62.123333,0.365113,33.000000,2132318.000000,1
1353,2,-99.325000,0.367676,33.000000,2126150.000000,1
1354,2,58.495000,0.371519,32.970000,2131032.000000,1
1355,2,-50.527500,0.366395,32.970000,2125580.000000,1
1356,2,160.132500,0.362551,33.000000,2135114.000000,1
1357,2,-10.725000,0.362551,32.990000,2143043.000000,1
1358,2,142.935000,0.363832,33.000000,2146737.000000,1
1359,2,-329.202500,0.361270,33.000000,2147853.000000,1
1360,2,-104.460000,0.363832,32.990000,2142308.000000,1
1361,2,201.622500,0.359989,32.990000,2142454.500000,1
1362,2,-225.220000,0.361270,32.990000,2131838.500000,1
1363,2,131.360000,0.363832,32.990000,2134202.500000,1
1364,2,-53.732500,0.363832,32.970000,2121668.500000,1
1365,2,67.322500,0.365113,32.970000,2119063.500000,1
1366,2,-47.592500,0.370238,32.970000,2108570.000000,1
1367,2,-80.510000,0.367676,32.970000,2090631.000000,1
1368,2,-95.972500,0.366395,32.990000,2070151.000000,1
1369,2,73.215000,0.367676,32.990000,2075706.000000,1
1370,2,80.060000,0.367676,32.970000,2058963.000000,1
1371,2,-325.887500,0.363832,32.970000,2058492.000000,1
1372,2,-9.040000,0.366395,33.000000,2046468.000000,1
1373,2,-141.785000,0.362551,32.990000,2029220.000000,1
1374,2,132.615000,0.376643,32.990000,2028131.000000,1
1375,2,-20.287500,0.362551,32.990000,2030272.500000,1
1376,2,-85.215000,0.365113,32.990000,1996754.000000,1
1377,2,82.617500,0.363832,32.990000,2012303.000000,1
1378,2,-30.513333,0.362551,32.990000,2010615.000000,1
1379,2,78.432500,0.365113,32.970000,2045585.000000,1
1380,2,3.587500,0.365113,32.970000,2051379.000000,1
1381,2,-267.110000,0.366395,32.970000,2074525.000000,1
1382,2,77.483333,0.363832,33.000000,2083450.000000,1
1383,2,-10.660000,0.361270,33.000000,2101883.000000,1
1384,2,-69.767500,0.371519,32.970000,2140112.500000,1
1385,2,-58.943333,0.365113,32.990000,2157002.000000,1
1386,2,21.290000,0.365113,32.990000,2164651.000000,1
1387,2,10.752500,0.365113,32.990000,2167792.000000,1
1388,2,75.683333,0.366395,32.970000,2154889.500000,1
1389,2,93.430000,0.365113,32.970000,2131325.000000,1
1390,2,59.075000,0.365113,32.970000,2123509.000000,1
1391,2,145.316667,0.365113,32.970000,2106816.000000,1
1392,2,19.305000,0.363832,32.970000,2092390.000000,1
1393,2,61.962500,0.361270,32.970000,2087394.000000,1
1394,2,-177.362500,0.363832,32.970000,2077707.000000,1
1395,2,160.132500,0.363832,32.970000,2089672.000000,1
1396,2,-20.107500,0.365113,32.950000,2096170.500000,1
1397,2,38.696667,0.359989,32.950000,2112707.500000,1
1398,2,192.502500,0.363832,32.950000,2130749.500000,1
1399,2,-294.077500,0.368957,32.990000,2136199.500000,1
1400,2,-143.512500,0.362551,32.990000,2144534.500000,1
1401,2,-0.185000,0.362551,32.970000,2155861.500000,1
1402,2,-312.445000,0.365113,32.970000,2161197.000000,1
1403,2,107.040000,0.361270,32.970000,2161869.000000,1
1404,2,-131.090000,0.362551,32.970000,2141023.000000,1
1405,2,149.580000,0.368957,32.970000,2145066.000000,1
1406,2,-14.100000,0.362551,32.970000,2136918.000000,1
1407,2,-5.102500,0.362551,32.970000,2108284.000000,1
1408,2,-114.310000,0.366395,32.970000,2107000.000000,1
1409,2,81.480000,0.371519,32.970000,2116662.000000,1
1410,2,-71.435000,0.367676,32.970000,2100104.500000,1
1411,2,129.925000,0.368957,32.970000,2099755.000000,1
1412,2,104.017500,0.362551,32.970000,2070555.000000,1
1413,2,74.070000,0.366395,32.970000,2078797.000000,1
1414,2,-5.585000,0.363832,32.970000,2076184.000000,1
1415,2,-188.417500,0.359989,32.970000,2098877.000000,1
1416,2,140.173333,0.363832,32.970000,2110890.000000,1
1417,2,16.912500,0.363832,32.970000,2117724.000000,1
1418,2,96.805000,0.366395,32.950000,2137298.000000,1
1419,2,22.982500,0.363832,32.950000,2140061.500000,1
1420,2,103.827500,0.361270,32.950000,2150580.000000,1
1421,2,155.937500,0.361270,32.950000,2155684.000000,1
1422,2,-71.517500,0.365113,32.970000,2182581.000000,1
1423,2,-174.790000,0.366395,32.970000,2188941.000000,1
1424,2,22.372500,0.366395,32.970000,2189349.000000,1
1425,2,-75.672500,0.365113,32.970000,2184116.500000,1
1426,2,175.730000,0.366395,32.970000,2184530.500000,1
1427,2,-61.657500,0.366395,32.930000,2174970.000000,1
1428,2,-16.170000,0.365113,32.930000,2168701.000000,1
1429,2,-97.992500,0.362551,32.930000,2153459.000000,1
1430,2,28.440000,0.363832,32.970000,2143441.500000,1
1431,2,11.413333,0.363832,32.970000,2127483.000000,1
1432,2,23.770000,0.363832,32.970000,2122306.500000,1
1433,2,-277.915000,0.361270,32.990000,2106293.000000,1
1434,2,5.755000,0.361270,32.990000,2096791.000000,1
1435,2,24.010000,0.368957,32.970000,2086438.000000,1
1436,2,226.747500,0.362551,32.970000,2077590.000000,1
1437,2,-440.420000,0.358708,32.970000,2081289.000000,1
1438,2,89.782500,0.365113,32.970000,2103549.000000,1
1439,2,17.610000,0.366395,32.970000,2116205.500000,1
1440,2,-93.602500,0.359989,32.970000,2141095.000000,1
1441,2,-44.470000,0.365113,32.950000,2146967.000000,1
1442,2,-40.200000,0.375362,32.950000,2154006.500000,1
1443,2,47.763333,0.363832,32.970000,2207862.000000,1
1444,2,137.090000,0.370238,32.970000,2211444.000000,1
1445,2,120.907500,0.367676,32.970000,2213457.000000,1
1446,2,130.883333,0.363832,32.950000,2199536.000000,1
1447,2,-11.167500,0.363832,32.950000,2198687.000000,1
1448,2,-81.590000,0.367676,32.930000,2173378.000000,1
1449,2,120.292500,0.362551,32.950000,2163329.000000,1
1450,2,-223.705000,0.363832,32.950000,2154345.000000,1
1451,2,-155.116667,0.363832,32.970000,2147266.000000,1
1452,2,30.125000,0.362551,32.950000,2152482.500000,1
1453,2,58.290000,0.358708,32.970000,2155561.000000,1
1454,2,169.085000,0.358708,32.970000,2154533.000000,1
1455,2,108.712500,0.359989,32.930000,2154977.000000,1
1456,2,-96.842500,0.358708,32.930000,2150372.000000,1
1457,2,72.402500,0.358708,32.930000,2153922.500000,1
1458,4,36.980000,0.403474,35.050000,1883526.000000,1
1459,4,-99.576667,0.403474,35.050000,1850571.500000,1
1460,4,99.532500,0.404754,35.050000,1858944.500000,1
1461,4,113.442500,0.403474,35.050000,1874980.500000,1
1462,4,12.650000,0.402193,35.050000,1866391.500000,1
1463,4,-74.720000,0.402193,35.050000,1864154.000000,1
1464,4,23.032500,0.404754,35.050000,1888064.000000,1
1465,4,27.365000,0.406035,35.030000,1895135.000000,1
1466,4,71.897500,0.399631,35.030000,1884849.500000,1
1467,4,171.735000,0.388103,35.030000,1881942.500000,1
1468,4,-378.232500,0.384260,35.030000,1887787.000000,1
1469,4,-10.112500,0.382980,35.050000,1913864.000000,1
1470,4,90.500000,0.384260,35.050000,1936167.000000,1
1471,4,44.342500,0.385541,35.050000,1946808.000000,1
1472,4,-14.895000,0.385541,35.050000,1959738.000000,1
1473,4,0.315000,0.385541,35.030000,1959940.000000,1
1474,4,-11.865000,0.382980,35.030000,1988977.000000,1
1475,4,-38.305000,0.384260,35.030000,2010747.000000,1
1476,4,34.050000,0.380418,35.030000,2037174.000000,1
1477,4,-25.230000,0.379137,35.030000,2038105.000000,1
1478,4,42.870000,0.380418,35.030000,2038335.500000,1
1479,4,-152.832500,0.381699,35.030000,2052992.000000,1
1480,4,29.707500,0.381699,35.030000,2027663.000000,1
1481,4,29.155000,0.381699,35.030000,2011523.500000,1
1482,4,-0.845000,0.386822,35.030000,2012936.000000,1
1483,4,53.852500,0.382980,35.030000,2013237.000000,1
1484,4,-72.142500,0.382980,35.030000,2021370.000000,1
1485,4,3.575000,0.381699,35.030000,2019336.000000,1
1486,4,-69.147500,0.382980,35.030000,2041108.000000,1
1487,4,39.000000,0.382980,35.030000,2046133.000000,1
1488,4,24.397500,0.384260,35.030000,2057222.000000,1
1489,4,-1.120000,0.382980,35.030000,2056619.000000,1
1490,4,42.410000,0.380418,35.030000,2064405.000000,1
1491,4,-118.902500,0.377856,35.030000,2098228.000000,1
1492,4,43.640000,0.377856,35.000000,2103957.000000,1
1493,4,25.485000,0.376575,35.000000,2102502.500000,1
1494,4,-54.573333,0.377856,35.000000,2104393.000000,1
1495,4,32.100000,0.377856,35.000000,2100300.000000,1
1496,4,33.442500,0.381699,35.030000,2094544.000000,1
1497,4,45.645000,0.380418,35.030000,2085766.000000,1
1498,4,-22.290000,0.380418,35.030000,2085243.000000,1
1499,4,-54.083333,0.380418,35.000000,2081765.000000,1
1500,4,-62.725000,0.374014,34.990000,2077956.000000,1
1501,4,33.423333,0.375294,34.990000,2071897.000000,1
1502,4,16.907500,0.376575,35.000000,2069928.000000,1
1503,4,-51.300000,0.374014,35.000000,2072720.500000,1
1504,4,16.900000,0.376575,35.000000,2063664.500000,1
1505,4,48.130000,0.376575,35.000000,2060668.000000,1
1506,4,-22.365000,0.375294,35.000000,2063667.000000,1
1507,4,-27.762500,0.377856,34.990000,2061622.000000,1
1508,4,11.513333,0.376575,35.000000,2044791.000000,1
1509,4,45.277500,0.390665,35.000000,2032267.000000,1
1510,4,37.692500,0.375294,34.990000,2028734.000000,1
1511,4,-17.832500,0.403474,34.990000,2034940.500000,1
1512,4,22.940000,0.388103,34.990000,2028440.000000,1
1513,4,-126.040000,0.372733,34.990000,2033338.000000,1
1514,4,-75.687500,0.377856,34.990000,2028768.500000,1
1515,4,24.652500,0.379137,34.990000,2012696.500000,1
1516,4,43.047500,0.379137,34.990000,2009369.000000,1
1517,4,-17.010000,0.376575,34.970000,1993233.000000,1
1518,4,-39.895000,0.374014,34.970000,2001221.000000,1
1519,4,40.910000,0.374014,34.970000,1987623.000000,1
1520,4,-61.825000,0.372733,34.970000,1998311.000000,1
1521,4,30.390000,0.374014,34.970000,1990819.000000,1
1522,4,-55.097500,0.375294,34.970000,1995739.000000,1
1523,4,34.377500,0.376575,34.970000,1979749.000000,1
1524,4,-39.535000,0.375294,34.970000,1982109.000000,1
1525,4,55.440000,0.375294,34.970000,1975631.000000,1
1526,4,5.220000,0.375294,35.000000,1973203.500000,1
1527,4,-21.907500,0.371452,34.970000,1981427.500000,1
1528,4,27.407500,0.370171,34.970000,1988870.500000,1
1529,4,17.700000,0.372733,34.970000,2007432.000000,1
1530,4,24.660000,0.371452,34.950000,1991889.000000,1
1531,4,81.275000,0.371452,34.970000,1988289.000000,1
1532,4,100.127500,0.371452,34.970000,1982346.000000,1
1533,4,-73.890000,0.372733,34.970000,1997098.000000,1
1534,4,-48.915000,0.368890,34.930000,1981497.000000,1
1535,4,24.702500,0.368890,34.930000,1984283.000000,1
1536,4,27.190000,0.368890,34.970000,1968072.000000,1
1537,4,138.240000,0.370171,34.970000,1976442.000000,1
1538,4,-0.097500,0.367609,34.970000,1971816.000000,1
1539,4,12.137500,0.371452,34.970000,1967031.000000,1
1540,4,34.890000,0.372733,34.950000,1962442.500000,1
1541,4,45.840000,0.370171,34.950000,1951213.000000,1
1542,4,-51.355000,0.368890,34.930000,1959787.000000,1
1543,4,-2.625000,0.367609,34.930000,1957760.500000,1
1544,4,22.866667,0.367609,34.970000,1925543.000000,1
1545,4,17.097500,0.370171,34.950000,1925677.000000,1
1546,4,-7.367500,0.370171,34.950000,1922278.000000,1
1547,4,-72.020000,0.371452,34.950000,1926681.000000,1
1548,4,25.617500,0.370171,34.950000,1922479.500000,1
1549,4,51.250000,0.367609,34.950000,1940548.500000,1
1550,4,13.835000,0.367609,34.950000,1933247.000000,1
1551,4,-10.060000,0.367609,34.930000,1931728.000000,1
1552,4,-81.232500,0.367609,34.930000,1945579.000000,1
1553,4,34.020000,0.368890,34.930000,1939672.000000,1
1554,4,1.290000,0.370171,34.930000,1928688.000000,1
1555,4,-70.466667,0.367609,34.930000,1928016.000000,1
1556,4,7.977500,0.365047,34.930000,1922172.000000,1
1557,4,42.360000,0.365047,34.910000,1912491.000000,1
1558,4,3.097500,0.367609,34.910000,1903387.000000,1
1559,4,49.197500,0.366328,34.930000,1886624.000000,1
1560,4,-60.135000,0.368890,34.930000,1897100.500000,1
1561,4,25.442500,0.367609,34.930000,1901180.000000,1
1562,4,8.800000,0.368890,34.910000,1905606.000000,1
1563,4,-45.822500,0.368890,34.910000,1921639.000000,1
1564,4,-6.455000,0.368890,34.910000,1921729.000000,1
1565,4,-66.310000,0.370171,34.930000,1915908.000000,1
1566,4,13.875000,0.365047,34.910000,1918255.000000,1
1567,4,40.167500,0.365047,34.910000,1910219.000000,1
1568,4,-12.562500,0.363767,34.910000,1901465.000000,1
1569,4,-31.140000,0.366328,34.910000,1899741.000000,1
1570,4,31.756667,0.366328,34.930000,1917689.500000,1
1571,4,-51.542500,0.367609,34.930000,1924019.000000,1
1572,4,19.287500,0.366328,34.910000,1912541.500000,1
1573,4,-36.876667,0.367609,34.950000,1920697.000000,1
1574,4,-14.557500,0.362486,34.950000,1925348.000000,1
1575,4,-48.075000,0.362486,34.910000,1908212.000000,1
1576,4,-73.730000,0.361205,34.910000,1888871.000000,1
1577,4,22.132500,0.365047,34.910000,1868468.000000,1
1578,4,-54.545000,0.366328,34.910000,1870245.000000,1
1579,4,30.453333,0.363767,34.910000,1852734.000000,1
1580,4,14.937500,0.365047,34.910000,1849497.500000,1
1581,4,-24.800000,0.363767,34.910000,1855218.500000,1
1582,4,31.122500,0.365047,34.910000,1869760.500000,1
1583,4,19.715000,0.361205,34.890000,1863292.000000,1
1584,4,46.430000,0.362486,34.890000,1870507.000000,1
1585,4,-24.562500,0.362486,34.890000,1880078.000000,1
1586,4,19.150000,0.362486,34.890000,1895229.000000,1
1587,4,-26.900000,0.362486,34.910000,1910305.000000,1
1588,4,-77.495000,0.363767,34.890000,1900122.000000,1
1589,4,-54.982500,0.365047,34.890000,1905289.500000,1
1590,4,-33.157500,0.362486,34.890000,1911463.000000,1
1591,4,11.347500,0.362486,34.890000,1916426.000000,1
1592,4,26.467500,0.363767,34.890000,1908501.500000,1
1593,4,25.510000,0.362486,34.890000,1908129.500000,1
1594,4,-3.957500,0.361205,34.890000,1904235.000000,1
1595,4,85.562500,0.363767,34.890000,1920819.000000,1
1596,4,-73.162500,0.363767,34.910000,1929979.000000,1
1597,4,-76.893333,0.359924,34.870000,1922067.000000,1
1598,4,-89.987500,0.359924,34.870000,1914000.000000,1
1599,4,-52.052500,0.353520,34.840000,1933006.000000,1
1600,4,53.460000,0.354801,34.840000,1942460.000000,1
1601,4,18.627500,0.354801,34.870000,1916063.000000,1
1602,4,-5.950000,0.357362,34.840000,1934353.000000,1
1603,4,70.740000,0.361205,34.840000,1928068.000000,1
1604,4,-6.315000,0.362486,34.840000,1923559.000000,1
1605,4,14.647500,0.362486,34.840000,1936477.000000,1
1606,4,-25.640000,0.361205,34.840000,1936527.000000,1
1607,4,-41.033333,0.362486,34.840000,1936091.000000,1
1608,4,-2.555000,0.358643,34.840000,1950425.000000,1
1609,4,-19.452500,0.359924,34.840000,1970405.000000,1
1610,4,-3.495000,0.359924,34.840000,1960236.000000,1
1611,4,-64.826667,0.361205,34.840000,1973559.500000,1
1612,4,6.105000,0.361205,34.870000,1987763.000000,1
1613,4,-16.150000,0.362486,34.870000,1977755.500000,1
1614,4,33.615000,0.359924,34.870000,1970405.000000,1
1615,4,25.662500,0.363767,34.870000,1957282.000000,1
1616,4,-70.812500,0.365047,34.890000,1961965.000000,1
1617,4,-26.222500,0.367609,34.890000,1948142.500000,1
1618,4,30.967500,0.367609,34.890000,1926197.000000,1
1619,4,-79.485000,0.368890,34.870000,1927689.000000,1
1620,4,-124.572500,0.366328,34.870000,1931806.000000,1
1621,4,43.602500,0.366328,34.890000,1928197.000000,1
1622,4,-137.590000,0.366328,34.890000,1939170.000000,1
1623,4,12.185000,0.368890,34.890000,1928105.500000,1
1624,4,-75.962500,0.366328,34.890000,1939234.000000,1
1625,4,20.982500,0.371452,34.890000,1924110.500000,1
1626,4,-84.537500,0.370171,34.890000,1927952.500000,1
1627,4,-21.072500,0.372733,34.890000,1923781.000000,1
1628,4,72.562500,0.371452,34.890000,1928082.000000,1
1629,4,19.142500,0.370171,34.890000,1932202.000000,1
1630,4,-82.955000,0.368890,34.910000,1922234.000000,1
1631,4,-48.697500,0.370171,34.910000,1919188.000000,1
1632,4,7.150000,0.368890,34.890000,1922460.000000,1
1633,4,21.045000,0.368890,34.890000,1910248.000000,1
1634,4,43.320000,0.371452,34.930000,1905780.000000,1
1635,4,21.317500,0.374014,34.890000,1915607.000000,1
1636,4,-18.013333,0.375294,34.890000,1920081.000000,1
1637,4,19.442500,0.374014,34.910000,1932748.000000,1
1638,4,42.645000,0.374014,34.910000,1923424.000000,1
1639,4,-3.527500,0.371452,34.910000,1929204.500000,1
1640,4,-40.610000,0.375294,34.910000,1946201.500000,1
1641,4,-64.946667,0.371452,34.910000,1950881.000000,1
1642,4,-88.627500,0.374014,34.910000,1951019.500000,1
1643,4,24.202500,0.375294,34.910000,1940875.000000,1
1644,4,-10.285000,0.377856,34.910000,1947292.500000,1
1645,4,-57.790000,0.377856,34.910000,1957779.000000,1
1646,4,11.863333,0.380418,34.910000,1947533.000000,1
1647,4,67.137500,0.379137,34.910000,1949402.500000,1
1648,4,10.610000,0.380418,34.890000,1947638.000000,1
1649,4,-46.970000,0.381699,34.890000,1956439.000000,1
1650,4,-9.527500,0.380418,34.890000,1950565.000000,1
1651,4,18.666667,0.380418,34.910000,1948109.000000,1
1652,4,30.295000,0.380418,34.910000,1962307.000000,1
1653,4,-15.677500,0.380418,34.910000,1968914.500000,1
1654,4,-37.537500,0.381699,34.910000,1976555.000000,1
1655,4,-11.366667,0.388103,34.910000,1970755.000000,1
1656,4,30.812500,0.394507,34.890000,1982228.500000,1
1657,4,2.692500,0.400912,34.890000,1983653.500000,1
1658,4,-49.935000,0.402193,34.890000,1990438.000000,1
1659,4,-21.592500,0.404754,34.910000,1972711.000000,1
1660,4,-57.460000,0.403474,34.910000,1976903.000000,1
1661,4,10.720000,0.400912,34.890000,1952893.000000,1
1662,4,-28.537500,0.399631,34.910000,1956477.500000,1
1663,4,-25.572500,0.402193,34.910000,1961923.000000,1
1664,4,23.115000,0.402193,34.910000,1956215.000000,1
1665,4,4.577500,0.404754,34.910000,1959444.500000,1
1666,4,-28.270000,0.406035,34.910000,1961955.000000,1
1667,4,-79.100000,0.406035,34.910000,1971798.000000,1
1668,4,16.812500,0.406035,34.910000,1966979.000000,1
1669,4,17.723333,0.404754,34.870000,1971189.000000,1
1670,4,-25.240000,0.403474,34.890000,1983557.000000,1
1671,4,13.850000,0.403474,34.890000,1983303.000000,1
1672,4,-13.607500,0.403474,34.890000,1991832.000000,1
1673,4,-12.635000,0.404754,34.890000,1988827.500000,1
1674,4,25.823333,0.404754,34.890000,1988365.000000,1
1675,4,-4.390000,0.409878,34.870000,1992181.000000,1
1676,4,31.580000,0.409878,34.870000,1988864.000000,1
1677,4,-9.175000,0.412440,34.890000,1988395.000000,1
1678,4,1.830000,0.412440,34.890000,1981592.500000,1
1679,4,-30.765000,0.409878,34.890000,1997550.500000,1
1680,4,-5.580000,0.423967,34.890000,1990202.000000,1
1681,4,-27.202500,0.416282,34.890000,1986774.500000,1
1682,4,12.942500,0.417563,34.890000,1973994.000000,1
1683,4,1.495000,0.417563,34.890000,1972295.000000,1
1684,4,38.915000,0.420125,34.870000,1961538.000000,1
1685,4,39.482500,0.420125,34.870000,1959071.000000,1
1686,4,26.142500,0.417563,34.870000,1947032.000000,1
1687,4,8.127500,0.418844,34.870000,1947643.000000,1
1688,4,23.287500,0.417563,34.840000,1932810.500000,1
1689,4,35.735000,0.418844,34.840000,1929801.500000,1
1690,4,-3.532500,0.418844,34.840000,1935874.000000,1
1691,4,-0.755000,0.415001,34.840000,1917073.000000,1
1692,4,19.375000,0.413720,34.840000,1895467.500000,1
1693,4,5.862500,0.413720,34.830000,1908370.000000,1
1694,4,36.942500,0.413720,34.830000,1895286.000000,1
1695,4,-61.950000,0.415001,34.870000,1885892.000000,1
1696,4,29.540000,0.418844,34.870000,1887498.000000,1
1697,4,-41.507500,0.421406,34.840000,1873106.000000,1
1698,4,30.970000,0.418844,34.840000,1880787.000000,1
1699,4,26.580000,0.416282,34.890000,1891149.500000,1
1700,4,3.272500,0.412440,34.840000,1911884.500000,1
1701,4,-58.143333,0.415001,34.840000,1909038.000000,1
1702,4,-3.435000,0.412440,34.840000,1927989.000000,1
1703,4,88.890000,0.413720,34.840000,1934847.000000,1
1704,4,-6.872500,0.412440,34.840000,1941116.000000,1
1705,4,-56.112500,0.418844,34.830000,1966255.000000,1
1706,4,22.555000,0.420125,34.830000,1963443.000000,1
1707,4,19.312500,0.421406,34.830000,1964796.000000,1
1708,4,14.993333,0.420125,34.840000,1976059.000000,1
1709,4,30.885000,0.418844,34.840000,1975212.000000,1
1710,4,21.707500,0.417563,34.840000,1971101.000000,1
1711,4,-17.946667,0.417563,34.830000,1964376.500000,1
1712,4,-25.805000,0.415001,34.830000,1965374.500000,1
1713,4,24.055000,0.418844,34.830000,1962602.500000,1
1714,4,-0.780000,0.413720,34.830000,1967626.500000,1
1715,4,12.005000,0.412440,34.830000,1952303.500000,1
1716,4,-37.303333,0.412440,34.830000,1960787.000000,1
1717,4,30.320000,0.418844,34.840000,1930663.500000,1
1718,4,-26.642500,0.421406,34.810000,1928871.000000,1
1719,4,-86.362500,0.421406,34.810000,1918303.000000,1
1720,4,27.032500,0.420125,34.830000,1917893.000000,1
1721,4,-40.890000,0.418844,34.830000,1913544.000000,1
1722,4,21.455000,0.418844,34.830000,1903406.500000,1
1723,4,20.753333,0.422687,34.810000,1904922.000000,1
1724,4,-17.367500,0.420125,34.810000,1909061.000000,1
1725,4,33.715000,0.422687,34.810000,1891904.000000,1
1726,4,6.355000,0.421406,34.810000,1900499.000000,1
1727,4,-75.277500,0.421406,34.810000,1896530.000000,1
1728,4,29.632500,0.421406,34.810000,1888265.000000,1
1729,4,-40.052500,0.421406,34.810000,1900055.000000,1
1730,4,15.582500,0.420125,34.790000,1914923.500000,1
1731,4,-54.890000,0.421406,34.790000,1927643.500000,1
1732,4,32.122500,0.417563,34.810000,1921126.500000,1
1733,4,-39.480000,0.417563,34.810000,1930345.500000,1
1734,4,-50.645000,0.425248,34.790000,1923859.000000,1
1735,4,28.095000,0.420125,34.790000,1931485.500000,1
1736,4,-38.653333,0.421406,34.810000,1931768.000000,1
1737,4,20.450000,0.421406,34.810000,1927828.000000,1
1738,4,6.790000,0.421406,34.810000,1940311.000000,1
1739,4,27.780000,0.421406,34.790000,1930386.000000,1
1740,4,31.467500,0.418844,34.790000,1942668.000000,1
1741,4,27.147500,0.438057,34.790000,1933991.000000,1
1742,4,-6.582500,0.439338,34.790000,1944500.000000,1
1743,4,-51.570000,0.441900,34.790000,1927801.000000,1
1744,4,16.497500,0.439338,34.770000,1935211.000000,1
1745,4,-28.583333,0.439338,34.770000,1939716.500000,1
1746,4,27.955000,0.441900,34.770000,1927177.000000,1
1747,4,3.950000,0.444461,34.790000,1937229.000000,1
1748,4,-31.836667,0.444461,34.770000,1925862.000000,1
1749,4,23.975000,0.444461,34.770000,1937546.500000,1
1750,4,-19.667500,0.443180,34.790000,1928062.000000,1
1751,4,-10.870000,0.443180,34.790000,1936497.000000,1
1752,4,-10.663333,0.445742,34.790000,1930277.000000,1
1753,4,80.970000,0.447023,34.790000,1930644.000000,1
1754,4,-28.182500,0.450866,34.750000,1929853.000000,1
1755,4,3.216667,0.464955,34.750000,1902614.000000,1
1756,4,-31.917500,0.476483,34.770000,1877160.500000,1
1757,4,46.777500,0.475202,34.770000,1859620.000000,1
1758,4,-50.205000,0.472640,34.770000,1853269.000000,1
1759,4,18.400000,0.472640,34.790000,1877811.500000,1
1760,4,5.945000,0.471360,34.790000,1879835.000000,1
1761,4,10.125000,0.479045,34.770000,1923716.000000,1
1762,4,-4.425000,0.480326,34.790000,1940409.000000,1
1763,4,-55.080000,0.482887,34.790000,1946778.000000,1
1764,4,9.757500,0.488011,34.790000,1968561.000000,1
1765,4,27.505000,0.480326,34.790000,2004855.000000,1
1766,4,20.756667,0.471360,34.790000,2027844.000000,1
1767,4,27.255000,0.470079,34.770000,2030239.000000,1
1768,4,-19.305000,0.470079,34.770000,2037267.000000,1
1769,4,-30.390000,0.470079,34.770000,2039498.500000,1
1770,4,34.852500,0.463674,34.770000,2036560.000000,1
1771,4,-29.147500,0.462393,34.770000,2034137.000000,1
1772,4,0.166667,0.463674,34.770000,2027639.000000,1
1773,4,-18.162500,0.461113,34.730000,2032442.000000,1
1774,4,-21.567500,0.457270,34.730000,2021317.000000,1
1775,4,-2.735000,0.459832,34.790000,2005574.000000,1
1776,4,13.872500,0.461113,34.790000,2003942.000000,1
1777,4,-29.340000,0.461113,34.790000,2008143.000000,1
1778,4,-11.865000,0.457270,34.770000,1994169.000000,1
1779,4,-42.780000,0.453427,34.750000,1969248.000000,1
1780,4,-20.595000,0.449585,34.730000,1966065.000000,1
1781,4,-31.592500,0.449585,34.730000,1949632.000000,1
1782,4,18.677500,0.448304,34.730000,1947907.500000,1
1783,4,-28.385000,0.448304,34.730000,1936778.000000,1
1784,4,-29.557500,0.450866,34.730000,1928116.000000,1
1785,4,26.550000,0.449585,34.730000,1929578.000000,1
1786,4,47.663333,0.452147,34.770000,1910687.000000,1
1787,4,-25.800000,0.452147,34.750000,1912903.000000,1
1788,4,-56.327500,0.452147,34.750000,1901971.000000,1
1789,4,-7.762500,0.449585,34.750000,1900036.000000,1
1790,4,-16.800000,0.448304,34.750000,1896293.000000,1
1791,4,8.982500,0.447023,34.750000,1900127.000000,1
1792,4,-38.105000,0.447023,34.750000,1890482.500000,1
1793,4,32.232500,0.449585,34.750000,1906085.000000,1
1794,4,-56.236667,0.447023,34.750000,1888812.000000,1
1795,4,33.612500,0.447023,34.750000,1898050.000000,1
1796,4,28.350000,0.448304,34.750000,1910992.500000,1
1797,4,-41.942500,0.450866,34.750000,1908990.000000,1
1798,4,24.412500,0.450866,34.750000,1916441.000000,1
1799,4,-0.647500,0.466236,34.750000,1919862.500000,1
1800,4,-56.080000,0.450866,34.750000,1906959.000000,1
1801,4,21.875000,0.449585,34.730000,1910143.000000,1
1802,4,47.642500,0.449585,34.730000,1921041.500000,1
1803,4,-25.597500,0.450866,34.730000,1917074.000000,1
1804,4,0.612500,0.448304,34.730000,1937052.000000,1
1805,4,22.910000,0.447023,34.730000,1928085.000000,1
1806,4,7.790000,0.447023,34.730000,1938314.000000,1
1807,4,22.367500,0.444461,34.730000,1931978.000000,1
1808,4,17.385000,0.447023,34.730000,1929750.000000,1
1809,4,-48.520000,0.447023,34.730000,1919999.500000,1
1810,4,19.546667,0.448304,34.750000,1911160.000000,1
1811,4,27.532500,0.448304,34.750000,1923128.000000,1
1812,4,14.772500,0.450866,34.750000,1912399.500000,1
1813,4,-17.055000,0.445742,34.710000,1913068.000000,1
1814,4,61.496667,0.447023,34.710000,1891987.000000,1
1815,4,-3.330000,0.444461,34.730000,1897966.000000,1
1816,4,27.062500,0.444461,34.730000,1891519.000000,1
1817,4,-50.007500,0.448304,34.730000,1883431.000000,1
1818,4,32.005000,0.447023,34.730000,1883510.000000,1
1819,4,18.392500,0.447023,34.730000,1891812.500000,1
1820,4,28.802500,0.445742,34.730000,1891058.000000,1
1821,4,-20.302500,0.448304,34.710000,1908201.000000,1
1822,4,2.435000,0.449585,34.710000,1901844.000000,1
1823,4,-33.582500,0.462393,34.680000,1908316.500000,1
1824,4,15.805000,0.461113,34.710000,1908489.000000,1
1825,4,35.072500,0.464955,34.730000,1903407.000000,1
1826,4,29.767500,0.457270,34.730000,1902609.000000,1
1827,4,-3.482500,0.452147,34.710000,1917411.500000,1
1828,4,31.052500,0.449585,34.710000,1909261.000000,1
1829,4,17.882500,0.449585,34.680000,1914221.000000,1
1830,4,-32.450000,0.450866,34.680000,1917211.500000,1
1831,4,56.762500,0.459832,34.680000,1909500.500000,1
1832,4,31.492500,0.459832,34.680000,1925181.000000,1
1833,4,-38.597500,0.457270,34.680000,1939224.000000,1
1834,4,28.296667,0.458551,34.680000,1928331.000000,1
1835,4,39.090000,0.458551,34.680000,1929807.000000,1
1836,4,-53.902500,0.470079,34.710000,1941492.000000,1
1837,4,31.765000,0.484168,34.710000,1931909.000000,1
1838,4,33.356667,0.498258,34.710000,1928663.000000,1
1839,4,-30.737500,0.500820,34.680000,1941343.000000,1
1840,4,-20.565000,0.488011,34.680000,1936603.500000,1
1841,4,20.702500,0.486730,34.660000,1934343.000000,1
1842,4,34.132500,0.481606,34.660000,1927346.000000,1
1843,4,32.042500,0.477764,34.660000,1926044.000000,1
1844,4,-0.985000,0.473921,34.660000,1929393.500000,1
1845,4,-20.140000,0.472640,34.680000,1935705.500000,1
1846,4,-14.547500,0.470079,34.680000,1922705.000000,1
1847,4,12.510000,0.470079,34.680000,1934115.000000,1
1848,4,-38.797500,0.468798,34.680000,1929444.000000,1
1849,4,34.342500,0.466236,34.680000,1956573.500000,1
1850,4,-10.925000,0.462393,34.680000,1950974.000000,1
1851,4,-6.276667,0.462393,34.680000,1967793.000000,1
1852,4,27.787500,0.463674,34.660000,1956990.000000,1
1853,4,32.080000,0.463674,34.680000,1964340.000000,1
1854,4,-43.820000,0.463674,34.680000,1960826.000000,1
1855,4,34.830000,0.466236,34.680000,1968636.000000,1
1856,4,-21.685000,0.461113,34.680000,1991280.000000,1
1857,4,-9.432500,0.466236,34.680000,1970474.500000,1
1858,4,9.330000,0.459832,34.680000,1974539.500000,1
1859,4,-70.157500,0.462393,34.680000,1965552.000000,1
1860,4,53.320000,0.464955,34.680000,1961756.500000,1
1861,4,-9.020000,0.463674,34.680000,1949383.000000,1
1862,4,-34.177500,0.462393,34.680000,1928039.000000,1
1863,4,40.487500,0.463674,34.680000,1920740.000000,1
1864,4,-49.605000,0.462393,34.680000,1924605.000000,1
1865,4,-12.250000,0.458551,34.680000,1899872.000000,1
1866,4,14.222500,0.459832,34.660000,1889272.000000,1
1867,4,-48.227500,0.462393,34.660000,1877111.000000,1
1868,4,25.310000,0.462393,34.660000,1865549.000000,1
1869,4,15.147500,0.461113,34.660000,1869650.500000,1
1870,4,-29.005000,0.461113,34.660000,1868646.500000,1
1871,4,27.612500,0.463674,34.660000,1846279.000000,1
1872,4,-23.345000,0.462393,34.660000,1854303.000000,1
1873,4,-40.085000,0.462393,34.650000,1841880.000000,1
1874,4,18.672500,0.459832,34.650000,1835222.000000,1
1875,4,12.197500,0.459832,34.650000,1843548.000000,1
1876,4,-65.220000,0.458551,34.650000,1859639.000000,1
1877,4,27.463333,0.458551,34.650000,1860835.000000,1
1878,4,28.437500,0.454708,34.660000,1869993.000000,1
1879,4,6.372500,0.455989,34.660000,1897775.000000,1
1880,4,-21.317500,0.461113,34.660000,1917206.000000,1
1881,4,13.560000,0.462393,34.660000,1927407.000000,1
1882,4,-42.850000,0.462393,34.660000,1937951.500000,1
1883,4,34.152500,0.462393,34.660000,1934500.500000,1
1884,4,-59.795000,0.457270,34.650000,1942402.000000,1
1885,4,-60.413333,0.457270,34.660000,1947572.000000,1
1886,4,-60.295000,0.458551,34.660000,1950957.000000,1
1887,4,32.330000,0.457270,34.660000,1942435.500000,1
1888,4,35.042500,0.453427,34.650000,1936509.000000,1
1889,4,-59.067500,0.453427,34.650000,1948784.500000,1
1890,4,29.440000,0.454708,34.630000,1933536.000000,1
1891,4,52.200000,0.455989,34.650000,1928309.000000,1
1892,4,-6.170000,0.455989,34.650000,1934374.000000,1
1893,4,14.087500,0.454708,34.650000,1937774.000000,1
1894,4,-18.166667,0.454708,34.650000,1935516.000000,1
1895,4,3.757500,0.454708,34.650000,1936158.000000,1
1896,4,22.970000,0.457270,34.650000,1924053.000000,1
1897,4,8.897500,0.453427,34.650000,1924642.000000,1
1898,4,0.952500,0.454708,34.650000,1917041.000000,1
1899,4,-61.773333,0.453427,34.650000,1924149.500000,1
1900,4,34.727500,0.455989,34.660000,1904947.500000,1
1901,4,1.012500,0.455989,34.650000,1903345.500000,1
1902,4,-43.770000,0.455989,34.650000,1913308.500000,1
1903,4,32.060000,0.454708,34.650000,1915834.000000,1
1904,4,-6.822500,0.455989,34.650000,1912517.000000,1
1905,4,-31.450000,0.458551,34.650000,1917290.000000,1
1906,4,8.940000,0.453427,34.650000,1906554.000000,1
1907,4,-19.807500,0.453427,34.650000,1911696.000000,1
1908,4,-3.970000,0.452147,34.650000,1903825.000000,1
1909,4,4.027500,0.454708,34.650000,1896689.000000,1
1910,4,-62.957500,0.453427,34.650000,1902293.000000,1
1911,4,38.402500,0.453427,34.650000,1894273.000000,1
1912,4,7.437500,0.455989,34.650000,1892946.000000,1
1913,4,11.187500,0.455989,34.630000,1893652.000000,1
1914,4,-61.967500,0.455989,34.630000,1900580.500000,1
1915,4,11.475000,0.457270,34.650000,1891380.500000,1
1916,4,-52.377500,0.454708,34.630000,1899654.500000,1
1917,4,30.407500,0.454708,34.630000,1909299.500000,1
1918,4,12.262500,0.455989,34.630000,1905910.000000,1
1919,4,-9.172500,0.459832,34.650000,1910052.000000,1
1920,4,-18.603333,0.475202,34.650000,1900121.000000,1
1921,4,24.732500,0.473921,34.630000,1903256.000000,1
1922,4,28.880000,0.470079,34.630000,1914525.000000,1
1923,4,-41.620000,0.463674,34.630000,1909187.000000,1
1924,4,55.850000,0.461113,34.630000,1904382.000000,1
1925,4,55.122500,0.458551,34.630000,1921961.000000,1
1926,4,-28.620000,0.458551,34.630000,1910733.000000,1
1927,4,-137.940000,0.455989,34.630000,1911132.000000,1
1928,4,10.056667,0.457270,34.630000,1903188.000000,1
1929,4,51.292500,0.455989,34.630000,1914637.500000,1
1930,4,16.182500,0.459832,34.630000,1902982.500000,1
1931,4,39.965000,0.459832,34.630000,1935603.500000,1
1932,4,19.965000,0.455989,34.630000,1944164.000000,1
1933,4,-81.765000,0.455989,34.630000,1943221.500000,1
1934,4,25.310000,0.454708,34.630000,1935087.500000,1
1935,4,12.330000,0.452147,34.650000,1914106.000000,1
1936,4,-68.850000,0.452147,34.650000,1923688.000000,1
1937,4,35.397500,0.459832,34.650000,1988329.000000,1
1938,4,-47.912500,0.462393,34.650000,1991108.000000,1
1939,4,51.050000,0.447023,34.650000,2002435.500000,1
1940,4,112.342500,0.462393,34.650000,2009271.500000,1
1941,4,4.617500,0.468798,34.650000,2014053.000000,1
1942,4,12.447500,0.475202,34.610000,2021738.500000,1
1943,4,-33.816667,0.499539,34.610000,2018277.500000,1
1944,6,-9.479091,0.661235,32.810000,1967816.250000,1
1945,6,170.656364,0.639459,32.810000,1980544.800000,1
1946,6,57.459167,0.638178,32.830000,1987460.250000,1
1947,6,47.356667,0.642020,32.830000,2083452.800000,1
1948,6,46.368182,0.635616,32.790000,2152393.400000,1
1949,6,-23.820909,0.642020,32.810000,2190188.000000,1
1950,6,-12.510909,0.649706,32.810000,2232952.400000,1
1951,6,-20.937273,0.644582,32.810000,2235744.250000,1
1952,6,-5.144545,0.640739,32.810000,2241661.000000,1
1953,6,-13.734545,0.630492,32.810000,2293714.750000,1
1954,6,2.035000,0.635616,32.810000,2295930.750000,1
1955,6,4.052727,0.631773,32.810000,2280511.500000,1
1956,6,-7.216364,0.633054,32.810000,2284451.600000,1
1957,6,6.665000,0.633054,32.810000,2294708.750000,1
1958,6,2.303636,0.625368,32.790000,2292138.200000,1
1959,6,-17.638333,0.625368,32.790000,2293859.500000,1
1960,6,8.019091,0.622806,32.790000,2285778.500000,1
1961,6,-18.048182,0.624087,32.790000,2285472.750000,1
1962,6,-13.125833,0.621525,32.790000,2270391.250000,1
1963,6,-30.307273,0.615121,32.790000,2276473.600000,1
1964,6,72.951818,0.616401,32.790000,2280718.800000,1
1965,6,-4.505455,0.602311,32.790000,2277808.400000,1
1966,6,4.853636,0.601030,32.790000,2267224.250000,1
1967,6,15.556667,0.597187,32.790000,2258719.800000,1
1968,6,13.810000,0.599749,32.790000,2265991.000000,1
1969,6,12.675455,0.597187,32.770000,2273621.500000,1
1970,6,25.718333,0.601030,32.810000,2262008.000000,1
1971,6,8.817273,0.612559,32.790000,2237838.800000,1
1972,6,4.943333,0.625368,32.790000,2267075.250000,1
1973,6,-14.828182,0.626649,32.790000,2199839.000000,1
1974,6,-23.402500,0.624087,32.790000,2209416.000000,1
1975,6,13.495833,0.642020,32.790000,2195893.500000,1
1976,6,16.613636,0.642020,32.790000,2182404.400000,1
1977,6,-27.642500,0.642020,32.810000,2170720.250000,1
1978,6,78.763636,0.620244,32.770000,2172967.600000,1
1979,6,-50.083636,0.616401,32.790000,2162304.250000,1
1980,6,-63.567500,0.608716,32.790000,2110535.600000,1
1981,6,-14.266364,0.598468,32.770000,2146442.600000,1
1982,6,11.034545,0.601030,32.790000,2151407.250000,1
1983,6,-10.686364,0.599749,32.790000,2130461.000000,1
1984,6,-5.768333,0.599749,32.770000,2134920.250000,1
1985,6,-33.917273,0.601030,32.770000,2109410.000000,1
1986,6,-64.779167,0.592064,32.790000,2146361.250000,1
1987,6,13.714167,0.590783,32.790000,2139049.250000,1
1988,6,-12.189091,0.593345,32.790000,2123314.000000,1
1989,6,9.873636,0.590783,32.790000,2114463.250000,1
1990,6,-15.659091,0.594625,32.790000,2143875.250000,1
1991,6,-2.730000,0.594625,32.770000,2147773.800000,1
1992,6,-4.660000,0.592064,32.770000,2140104.400000,1
1993,6,-31.918182,0.594625,32.770000,2130803.750000,1
1994,6,-9.108182,0.589502,32.770000,2150267.400000,1
1995,6,48.785000,0.588221,32.790000,2149801.000000,1
1996,6,14.575455,0.586940,32.790000,2159422.250000,1
1997,6,3.865455,0.579254,32.790000,2164861.000000,1
1998,6,17.626364,0.577973,32.790000,2168034.000000,1
1999,6,21.445455,0.583097,32.750000,2166783.250000,1
2000,6,-19.230000,0.588221,32.790000,2166603.500000,1
2001,6,-32.261818,0.585659,32.790000,2163194.500000,1
2002,6,-2.904167,0.577973,32.770000,2152582.000000,1
2003,6,-23.120833,0.570287,32.770000,2154651.000000,1
2004,6,4.367273,0.579254,32.770000,2167795.000000,1
2005,6,-18.153636,0.576692,32.770000,2173662.000000,1
2006,6,-37.720833,0.569007,32.790000,2172904.250000,1
2007,6,6.221818,0.562602,32.790000,2164049.500000,1
2008,6,-0.034167,0.562602,32.790000,2165618.200000,1
2009,6,26.330833,0.560040,32.770000,2179229.600000,1
2010,6,-45.855833,0.565164,32.770000,2187717.000000,1
2011,6,-23.496364,0.566445,32.790000,2148923.250000,1
2012,6,-24.523636,0.563883,32.770000,2141862.200000,1
2013,6,37.429167,0.553635,32.770000,2171776.250000,1
2014,6,-8.300833,0.548511,32.770000,2168049.000000,1
2015,6,-30.867273,0.545950,32.770000,2169411.000000,1
2016,6,-9.232500,0.554916,32.790000,2132525.600000,1
2017,6,-28.594545,0.552354,32.790000,2187572.500000,1
2018,6,-54.470909,0.551073,32.750000,2193262.750000,1
2019,6,14.760909,0.551073,32.750000,2197372.500000,1
2020,6,-3.261667,0.545950,32.750000,2193307.000000,1
2021,6,80.687500,0.547230,32.770000,2184076.750000,1
2022,6,7.365455,0.544669,32.770000,2160654.600000,1
2023,6,-33.412727,0.543388,32.770000,2163665.500000,1
2024,6,70.430000,0.542107,32.790000,2164748.800000,1
2025,6,-54.955833,0.538264,32.790000,2172344.400000,1
2026,6,-24.518182,0.535702,32.790000,2165946.250000,1
2027,6,5.409167,0.531859,32.790000,2163075.800000,1
2028,6,21.550909,0.533140,32.770000,2177008.000000,1
2029,6,34.570833,0.533140,32.770000,2192272.750000,1
2030,6,20.759091,0.531859,32.790000,2195676.600000,1
2031,6,-115.161818,0.530578,32.770000,2183430.000000,1
2032,6,-7.077273,0.529297,32.770000,2203111.500000,1
2033,6,-29.234167,0.530578,32.770000,2200434.250000,1
2034,6,21.053636,0.531859,32.770000,2203899.800000,1
2035,6,-34.569091,0.530578,32.790000,2200047.600000,1
2036,6,9.365833,0.524173,32.750000,2190831.800000,1
2037,6,13.894545,0.528016,32.750000,2194155.000000,1
2038,6,-30.265833,0.520331,32.810000,2150115.000000,1
2039,6,-2.953636,0.513926,32.790000,2150699.750000,1
2040,6,-25.995455,0.516488,32.770000,2161718.000000,1
2041,6,30.816364,0.510083,32.770000,2159414.600000,1
2042,6,2.670000,0.506240,32.770000,2159409.500000,1
2043,6,156.580000,0.506240,32.790000,2175370.400000,1
2044,6,-36.513636,0.504959,32.770000,2171258.000000,1
2045,6,28.125833,0.510083,32.770000,2173075.250000,1
2046,6,-5.496364,0.501116,32.770000,2183384.400000,1
2047,6,113.127500,0.501116,32.770000,2176351.750000,1
2048,6,-64.580909,0.502397,32.790000,2180067.200000,1
2049,6,17.923636,0.493431,32.770000,2173163.750000,1
2050,6,-19.240000,0.501116,32.770000,2150257.500000,1
2051,6,32.930909,0.508802,32.790000,2149205.250000,1
2052,6,11.244545,0.506240,32.790000,2144611.000000,1
2053,6,-10.410000,0.508802,32.790000,2114151.600000,1
2054,6,-21.520000,0.508802,32.790000,2108700.800000,1
2055,6,-37.262727,0.522892,32.770000,2120844.750000,1
2056,6,3.945455,0.513926,32.770000,2124247.750000,1
2057,6,12.104545,0.501116,32.790000,2131570.000000,1
2058,6,234.485000,0.498555,32.790000,2151127.600000,1
2059,6,-85.827273,0.497274,32.790000,2153270.750000,1
2060,6,21.942727,0.494712,32.790000,2164772.250000,1
2061,6,318.950000,0.488307,32.790000,2181575.000000,1
2062,6,-5.165000,0.498555,32.790000,2197699.600000,1
2063,6,-51.745833,0.502397,32.810000,2180310.800000,1
2064,6,-22.762727,0.485745,32.810000,2084855.000000,1
2065,6,-61.198182,0.484464,32.810000,2081735.800000,1
2066,6,-2.946364,0.481902,32.790000,2133106.250000,1
2067,6,-39.497273,0.481902,32.810000,2136601.800000,1
2068,6,9.370000,0.485745,32.810000,2120615.200000,1
2069,6,-16.359091,0.495993,32.810000,2162654.750000,1
2070,6,24.792500,0.495993,32.790000,2162810.000000,1
2071,6,-56.434167,0.490869,32.810000,2151890.750000,1
2072,6,-36.261667,0.483183,32.810000,2194607.600000,1
2073,6,-81.134545,0.493431,32.810000,2212893.000000,1
2074,6,-54.309167,0.488307,32.810000,2204726.200000,1
2075,6,14.053636,0.487026,32.810000,2197602.000000,1
2076,6,14.915000,0.485745,32.830000,2190011.000000,1
2077,6,-25.252727,0.490869,32.830000,2180746.200000,1
2078,6,-29.280000,0.490869,32.830000,2187979.250000,1
2079,6,-66.990000,0.483183,32.810000,2180516.500000,1
2080,6,26.125455,0.480621,32.810000,2137097.200000,1
2081,6,2.454545,0.488307,32.810000,2100294.400000,1
2082,6,36.032500,0.498555,32.810000,2117889.000000,1
2083,6,-4.244167,0.499835,32.810000,2111229.200000,1
2084,6,41.429091,0.495993,32.810000,2085629.000000,1
2085,6,-41.003636,0.499835,32.810000,2085854.000000,1
2086,6,16.658182,0.492150,32.830000,2112358.400000,1
2087,6,-17.685455,0.489588,32.830000,2088655.250000,1
2088,6,-31.940909,0.490869,32.810000,2087295.000000,1
2089,6,-6.110000,0.494712,32.830000,2150975.000000,1
2090,6,22.460000,0.494712,32.830000,2157816.600000,1
2091,6,11.285455,0.492150,32.830000,2155332.250000,1
2092,6,-74.420833,0.490869,32.830000,2162390.600000,1
2093,6,-57.073636,0.490869,32.810000,2159912.250000,1
2094,6,148.684545,0.481902,32.810000,2165008.750000,1
2095,6,278.133333,0.483183,32.810000,2161375.200000,1
2096,6,5.287273,0.480621,32.810000,2168999.800000,1
2097,6,-6.282727,0.489588,32.810000,2183703.250000,1
2098,6,-4.499091,0.487026,32.830000,2178071.800000,1
2099,6,-49.959091,0.478059,32.830000,2182389.250000,1
2100,6,-23.132500,0.480621,32.810000,2151977.200000,1
2101,6,-8.796364,0.483183,32.810000,2177542.000000,1
2102,6,-2.390909,0.483183,32.830000,2180843.250000,1
2103,6,-10.288182,0.487026,32.830000,2179982.000000,1
2104,6,-38.110833,0.480621,32.830000,2178051.750000,1
2105,6,21.780000,0.481902,32.790000,2175439.250000,1
2106,6,31.885000,0.478059,32.790000,2164577.750000,1
2107,6,-4.778182,0.478059,32.830000,2151501.750000,1
2108,6,18.413333,0.474217,32.830000,2139126.000000,1
2109,6,30.788182,0.479340,32.830000,2106782.000000,1
2110,6,35.310833,0.492150,32.810000,2119872.750000,1
2111,6,0.939167,0.492150,32.830000,2116192.400000,1
2112,6,3.227273,0.490869,32.830000,2152471.500000,1
2113,6,36.997273,0.490869,32.830000,2154111.000000,1
2114,6,164.307273,0.489588,32.830000,2143040.250000,1
2115,6,-72.708333,0.487026,32.830000,2132472.000000,1
2116,6,0.876364,0.488307,32.830000,2126047.250000,1
2117,6,-44.299167,0.488307,32.830000,2125611.750000,1
2118,6,25.261818,0.487026,32.830000,2123806.200000,1
2119,6,-67.575455,0.489588,32.830000,2125466.600000,1
2120,6,-1.006364,0.485745,32.830000,2135798.250000,1
2121,6,-21.252727,0.488307,32.840000,2129817.250000,1
2122,6,1.801667,0.488307,32.840000,2134808.250000,1
2123,6,-41.499091,0.487026,32.840000,2140116.750000,1
2124,6,3.110000,0.487026,32.840000,2136588.600000,1
2125,6,-8.089091,0.487026,32.830000,2142824.800000,1
2126,6,-38.528333,0.481902,32.830000,2149342.750000,1
2127,6,-51.116364,0.481902,32.840000,2159359.000000,1
2128,6,22.050000,0.483183,32.840000,2156260.500000,1
2129,6,3.707273,0.481902,32.840000,2157968.400000,1
2130,6,22.849167,0.484464,32.840000,2147985.750000,1
2131,6,8.611818,0.490869,32.840000,2141776.200000,1
2132,6,-36.896364,0.495993,32.840000,2155695.750000,1
2133,6,2.770000,0.497274,32.840000,2163966.500000,1
2134,6,-72.519167,0.498555,32.840000,2162873.000000,1
2135,6,197.883636,0.501116,32.830000,2165320.250000,1
2136,6,-34.919091,0.492150,32.830000,2167504.000000,1
2137,6,-68.474545,0.490869,32.830000,2168998.000000,1
2138,6,-21.836667,0.488307,32.830000,2165524.250000,1
2139,6,-2.053333,0.489588,32.810000,2130125.600000,1
2140,6,-70.915455,0.487026,32.810000,2128385.500000,1
2141,6,-33.558182,0.485745,32.810000,2136987.000000,1
2142,6,-114.101667,0.485745,32.840000,2163604.200000,1
2143,6,-12.316364,0.484464,32.840000,2158810.750000,1
2144,6,0.129091,0.484464,32.840000,2166893.600000,1
2145,6,31.344545,0.480621,32.840000,2173431.750000,1
2146,6,-11.092500,0.475498,32.840000,2152682.000000,1
2147,6,264.104545,0.476778,32.840000,2170628.400000,1
2148,6,-53.689167,0.475498,32.840000,2178555.000000,1
2149,6,-16.150000,0.479340,32.840000,2178088.000000,1
2150,6,-59.730000,0.485745,32.810000,2175215.000000,1
2151,6,137.632727,0.483183,32.810000,2188243.250000,1
2152,6,22.923636,0.478059,32.840000,2197098.400000,1
2153,6,205.694167,0.483183,32.810000,2183066.400000,1
2154,6,-86.584545,0.485745,32.810000,2189126.000000,1
2155,6,-27.472727,0.487026,32.810000,2182581.800000,1
2156,6,32.630909,0.485745,32.840000,2182481.500000,1
2157,6,26.924167,0.480621,32.830000,2177119.500000,1
2158,6,17.574167,0.499835,32.840000,2151531.500000,1
2159,6,-39.851818,0.494712,32.840000,2139282.800000,1
2160,6,-13.113636,0.493431,32.840000,2120584.250000,1
2161,6,-127.322727,0.493431,32.840000,2058095.000000,1
2162,6,106.532727,0.494712,32.830000,2060661.400000,1
2163,6,195.197273,0.492150,32.830000,2087140.500000,1
2164,6,-111.513333,0.493431,32.830000,2095696.400000,1
2165,6,6.132500,0.487026,32.840000,2090733.000000,1
2166,6,-31.174545,0.489588,32.840000,2097697.250000,1
2167,6,19.595455,0.494712,32.840000,2091958.000000,1
2168,6,-56.112500,0.495993,32.840000,2096733.500000,1
2169,6,135.211818,0.503678,32.840000,2096681.500000,1
2170,6,-51.280000,0.507521,32.840000,2098029.200000,1
2171,6,12.021667,0.515207,32.840000,2104420.000000,1
2172,6,-8.230833,0.511364,32.840000,2105272.250000,1
2173,6,-27.393636,0.501116,32.840000,2102218.500000,1
2174,6,61.811818,0.501116,32.840000,2109979.000000,1
2175,6,6.809091,0.502397,32.830000,2116688.800000,1
2176,6,-12.151818,0.502397,32.830000,2119542.500000,1
2177,6,25.751818,0.511364,32.840000,2128681.250000,1
2178,6,6.998182,0.513926,32.830000,2139866.000000,1
2179,6,-28.736364,0.504959,32.840000,2157732.600000,1
2180,6,98.981818,0.513926,32.840000,2160101.750000,1
2181,6,6.439091,0.497274,32.840000,2151404.000000,1
2182,6,10.373636,0.498555,32.840000,2154441.250000,1
2183,6,3.587273,0.501116,32.840000,2146485.250000,1
2184,6,5.868333,0.503678,32.840000,2138422.500000,1
2185,6,-11.894545,0.501116,32.840000,2143502.500000,1
2186,6,47.058182,0.504959,32.840000,2133647.800000,1
2187,6,106.076364,0.504959,32.840000,2139816.750000,1
2188,6,5.113636,0.507521,32.840000,2167819.250000,1
2189,6,-54.749167,0.504959,32.830000,2157730.800000,1
2190,6,15.380000,0.503678,32.840000,2125499.500000,1
2191,6,26.446667,0.507521,32.840000,2126368.400000,1
2192,6,-28.998182,0.512645,32.830000,2118489.400000,1
2193,6,27.501818,0.522892,32.830000,2114935.750000,1
2194,6,-43.485455,0.538264,32.830000,2114164.250000,1
2195,6,12.932727,0.545950,32.840000,2110570.750000,1
2196,6,-15.381667,0.552354,32.840000,2114427.400000,1
2197,6,-22.476364,0.545950,32.840000,2116601.400000,1
2198,6,28.880000,0.542107,32.840000,2109373.500000,1
2199,6,12.321818,0.536983,32.840000,2103782.800000,1
2200,6,55.118182,0.522892,32.840000,2097215.000000,1
2201,6,6.220000,0.517769,32.840000,2107244.400000,1
2202,6,1.950000,0.516488,32.840000,2109625.000000,1
2203,6,-34.696364,0.516488,32.840000,2121444.400000,1
2204,6,31.424167,0.519050,32.840000,2117850.000000,1
2205,6,-50.679091,0.522892,32.840000,2141839.750000,1
2206,6,17.130000,0.519050,32.840000,2138023.000000,1
2207,6,-28.838333,0.516488,32.840000,2141949.600000,1
2208,6,-37.733636,0.519050,32.840000,2137352.400000,1
2209,6,30.591667,0.516488,32.840000,2132329.200000,1
2210,6,-51.586364,0.516488,32.870000,2148399.750000,1
2211,6,27.508182,0.512645,32.870000,2144808.250000,1
2212,6,-16.345000,0.515207,32.870000,2147019.750000,1
2213,6,26.149091,0.508802,32.870000,2145216.000000,1
2214,6,132.712727,0.508802,32.840000,2149427.200000,1
2215,6,-109.796364,0.510083,32.870000,2152910.200000,1
2216,6,-64.479167,0.510083,32.870000,2149296.500000,1
2217,6,-55.181818,0.510083,32.870000,2151734.750000,1
2218,6,1.780000,0.511364,32.870000,2144275.500000,1
2219,6,-8.292500,0.510083,32.870000,2145366.000000,1
2220,6,23.906364,0.511364,32.870000,2140953.600000,1
2221,6,-19.183333,0.508802,32.870000,2145230.600000,1
2222,6,-3.828182,0.502397,32.870000,2144219.250000,1
2223,6,-27.231667,0.502397,32.870000,2141802.500000,1
2224,6,15.782727,0.502397,32.840000,2158035.200000,1
2225,6,36.034545,0.501116,32.840000,2159747.600000,1
2226,6,17.868182,0.501116,32.840000,2156402.000000,1
2227,6,-5.401818,0.502397,32.840000,2160252.200000,1
2228,6,24.356667,0.504959,32.840000,2152211.250000,1
2229,6,21.488182,0.504959,32.840000,2149320.250000,1
2230,6,-24.480000,0.503678,32.870000,2146940.500000,1
2231,6,-35.116364,0.507521,32.870000,2143240.000000,1
2232,6,5.765833,0.506240,32.840000,2149699.400000,1
2233,6,-37.280909,0.504959,32.840000,2138904.250000,1
2234,6,-11.116364,0.503678,32.840000,2140636.000000,1
2235,6,-10.011818,0.499835,32.840000,2132047.500000,1
2236,6,-44.826667,0.498555,32.840000,2135240.250000,1
2237,6,-31.893636,0.503678,32.870000,2129503.000000,1
2238,6,-8.979091,0.504959,32.870000,2125752.600000,1
2239,6,11.541818,0.502397,32.870000,2114441.500000,1
2240,6,-2.225455,0.494712,32.890000,2115673.600000,1
2241,6,24.460000,0.497274,32.870000,2107285.200000,1
2242,6,-42.394545,0.499835,32.870000,2113765.000000,1
2243,6,33.350833,0.499835,32.870000,2106883.000000,1
2244,6,-28.628182,0.507521,32.870000,2105267.000000,1
2245,6,-3.045455,0.516488,32.870000,2094768.000000,1
2246,6,-2.365833,0.522892,32.870000,2102653.200000,1
2247,6,-0.237500,0.538264,32.840000,2114229.000000,1
2248,6,17.804167,0.528016,32.870000,2111846.500000,1
2249,6,-11.819091,0.526735,32.870000,2120560.000000,1
2250,6,-36.926667,0.522892,32.870000,2130484.500000,1
2251,6,-22.181818,0.520331,32.870000,2125260.750000,1
2252,6,-1.091667,0.515207,32.870000,2123891.750000,1
2253,6,-47.034545,0.516488,32.870000,2124030.750000,1
2254,6,-68.765455,0.515207,32.870000,2127998.400000,1
