ID,empatica_bvp,empatica_eda,empatica_temp,samsung_bvp,time,CL
0.0,0.1166666666666666,,,2192649.0,1767084367.706875,1
0.0,5.005,,,2192665.0,1767084367.741875,1
0.0,7.32,0.522594,34.93,2192602.0,1767084367.776875,1
0.0,6.98,,,,1767084367.811875,1
0.0,4.483333333333333,,,2192580.0,1767084367.846875,1
0.0,4.949999999999999,,,2192213.0,1767084367.881875,1
0.0,12.1,,,2191592.0,1767084367.916875,1
0.0,23.525,,,2191294.0,1767084367.951875,1
0.0,33.79333333333333,,,2191318.0,1767084367.986875,1
0.0,36.255,0.521313,34.93,2191510.0,1767084368.021875,1
0.0,35.92,,,2191865.0,1767084368.056875,1
0.0,36.760000000000005,,,,1767084368.091875,1
0.0,39.56,,,2192148.0,1767084368.126875,1
0.0,41.265,,,2192461.0,1767084368.161875,1
0.0,40.91,,,2192829.0,1767084368.196875,1
0.0,42.935,,,2193108.0,1767084368.231875,1
0.0,49.40333333333333,0.521313,34.93,2192670.0,1767084368.266875,1
0.0,43.55,,,2191065.0,1767084368.301875,1
0.0,16.905,,,2188995.0,1767084368.336875,1
0.0,-21.94,,,,1767084368.371875,1
0.0,-64.42,,,2187669.0,1767084368.406875,1
0.0,-89.21000000000001,,,2186382.0,1767084368.441875,1
0.0,-93.75,,,2185861.0,1767084368.476875,1
0.0,-84.565,0.522594,34.93,2185914.0,1767084368.511875,1
0.0,-65.965,,,2186289.0,1767084368.546875,1
0.0,-47.80666666666667,,,2187345.0,1767084368.581875,1
0.0,-45.695,,,2188554.0,1767084368.616875,1
0.0,-50.705,,,2190132.0,1767084368.651875,1
0.0,-55.185,,,2192653.0,1767084368.686875,1
0.0,-57.47666666666667,,,2195128.0,1767084368.721875,1
0.0,-46.995000000000005,0.522594,34.93,,1767084368.756875,1
0.0,-22.47,,,2196531.0,1767084368.791875,1
0.0,9.695,,,2196910.0,1767084368.826875,1
0.0,53.330000000000005,,,2195551.0,1767084368.861875,1
0.0,107.77,,,2194299.0,1767084368.896875,1
0.0,161.41,,,2192001.0,1767084368.931875,1
0.0,206.365,,,2188025.0,1767084368.966875,1
0.0,203.59,0.521313,34.93,2182633.0,1767084369.001875,1
0.0,118.52,,,,1767084369.036875,1
0.0,17.48,,,2176801.0,1767084369.071875,1
0.0,-59.11,,,2171419.0,1767084369.106875,1
0.0,-95.96333333333332,,,2167265.0,1767084369.141875,1
0.0,-100.35,,,2164153.0,1767084369.176875,1
0.0,-93.325,,,2162207.0,1767084369.211875,1
0.0,-84.7,,,2161657.0,1767084369.246875,1
0.0,-83.90666666666665,0.518752,34.95,2161118.0,1767084369.281875,1
0.0,-82.80000000000001,,,,1767084369.316875,1
0.0,-68.09,,,2160785.0,1767084369.351875,1
0.0,-47.75,,,2160030.0,1767084369.386875,1
0.0,-32.605,,,2159467.0,1767084369.421875,1
0.0,-19.633333333333333,,,2158466.0,1767084369.456875,1
0.0,-6.3,,,2157659.0,1767084369.491875,1
0.0,1.44,0.522594,34.95,2156133.0,1767084369.526875,1
0.0,4.23,,,2154444.0,1767084369.561875,1
0.0,6.95,,,,1767084369.596875,1
0.0,14.08,,,2152494.0,1767084369.631875,1
0.0,20.61,,,2150234.0,1767084369.666875,1
0.0,24.21,,,2146857.0,1767084369.701875,1
0.0,24.78333333333333,,,2142225.0,1767084369.736875,1
0.0,22.335,0.525156,34.95,2137444.0,1767084369.771875,1
0.0,16.17,,,2133371.0,1767084369.806875,1
0.0,6.23,,,2130248.0,1767084369.841875,1
0.0,-6.669999999999999,,,,1767084369.876875,1
0.0,-15.4,,,2128114.0,1767084369.911875,1
0.0,-18.925,,,2126180.0,1767084369.946875,1
0.0,-22.24,,,2124829.0,1767084369.981875,1
0.0,-26.133333333333336,0.523875,34.95,2124277.0,1767084370.016875,1
0.0,-21.200000000000003,,,2124678.0,1767084370.051875,1
0.0,-6.27,,,2124921.0,1767084370.086875,1
0.0,12.11,,,2126185.0,1767084370.121875,1
0.0,30.24666666666667,,,2126909.0,1767084370.156875,1
0.0,41.09,,,,1767084370.191875,1
0.0,43.58,,,2128202.0,1767084370.226875,1
0.0,41.44,0.523875,34.91,2129296.0,1767084370.261875,1
0.0,37.615,,,2130775.0,1767084370.296875,1
0.0,33.346666666666664,,,2132021.0,1767084370.331875,1
0.0,26.115,,,2132623.0,1767084370.366875,1
0.0,15.9,,,2131996.0,1767084370.401875,1
0.0,6.449999999999999,,,2129978.0,1767084370.436875,1
0.0,0.4733333333333334,,,,1767084370.471875,1
0.0,-3.575,0.526437,34.91,2128318.0,1767084370.506875,1
0.0,-5.085,,,2127043.0,1767084370.541875,1
0.0,-2.255,,,2126511.0,1767084370.576875,1
0.0,2.2133333333333334,,,2126376.0,1767084370.611875,1
0.0,0.955,,,2126394.0,1767084370.646875,1
0.0,-3.09,,,2125985.0,1767084370.681875,1
0.0,-4.640000000000001,,,2125539.0,1767084370.716875,1
0.0,-0.3399999999999999,0.528999,34.91,2125332.0,1767084370.751875,1
0.0,-0.5149999999999999,,,,1767084370.786875,1
0.0,-13.495,,,2125666.0,1767084370.821875,1
0.0,-32.0,,,2126395.0,1767084370.856875,1
0.0,-47.55666666666667,,,2126817.0,1767084370.891875,1
0.0,-54.64,,,2127524.0,1767084370.926875,1
0.0,-57.150000000000006,,,2127963.0,1767084370.961875,1
0.0,-55.905,,,2128771.0,1767084370.996875,1
0.0,-46.82666666666666,0.530279,34.91,2128904.0,1767084371.031875,1
0.0,-31.815,,,2127217.0,1767084371.066875,1
0.0,-18.41,,,,1767084371.101875,1
0.0,-8.3,,,2125192.0,1767084371.136875,1
0.0,-4.73,,,2123618.0,1767084371.171875,1
0.0,-7.479999999999999,,,2122560.0,1767084371.206875,1
0.0,-9.94,,,2122064.0,1767084371.241875,1
0.0,-9.465,0.523875,34.91,2121804.0,1767084371.276875,1
0.0,-9.925,,,2121125.0,1767084371.311875,1
0.0,-15.313333333333333,,,2120355.0,1767084371.346875,1
0.0,-24.96,,,2119175.0,1767084371.381875,1
0.0,-33.535,,,,1767084371.416875,1
0.0,-37.485,,,2118737.0,1767084371.451875,1
0.0,-28.05333333333333,,,2118392.0,1767084371.486875,1
0.0,-7.789999999999999,0.525156,34.91,2118429.0,1767084371.521875,1
0.0,8.120000000000001,,,2118514.0,1767084371.556875,1
0.0,19.31,,,2118771.0,1767084371.591875,1
0.0,25.276666666666667,,,2119192.0,1767084371.626875,1
0.0,23.58,,,,1767084371.661875,1
0.0,20.935,,,2119594.0,1767084371.696875,1
0.0,22.11,,,2119325.0,1767084371.731875,1
0.0,26.75666666666667,0.527718,34.91,2117392.0,1767084371.766875,1
0.0,29.1,,,2115401.0,1767084371.801875,1
0.0,28.055,,,2114053.0,1767084371.836875,1
0.0,24.67,,,2113097.0,1767084371.871875,1
0.0,17.063333333333333,,,2112530.0,1767084371.906875,1
0.0,7.645,,,,1767084371.941875,1
0.0,-0.0599999999999999,,,2112339.0,1767084371.976875,1
0.0,-8.190000000000001,0.523875,34.91,2112116.0,1767084372.011875,1
0.0,-18.2,,,2112201.0,1767084372.046875,1
0.0,-32.913333333333334,,,2112494.0,1767084372.081875,1
0.0,-40.635,,,2113259.0,1767084372.116875,1
0.0,-32.79,,,2114347.0,1767084372.151875,1
0.0,-15.205,,,2115867.0,1767084372.186875,1
0.0,6.723333333333334,,,2117109.0,1767084372.221875,1
0.0,20.635,0.522594,34.93,,1767084372.256875,1
0.0,24.74,,,2118674.0,1767084372.291875,1
0.0,24.06,,,2120823.0,1767084372.326875,1
0.0,20.65333333333333,,,2120540.0,1767084372.361875,1
0.0,18.635,,,2118932.0,1767084372.396875,1
0.0,18.32,,,2116912.0,1767084372.431875,1
0.0,18.1,,,2115311.0,1767084372.466875,1
0.0,17.843333333333334,0.521313,34.93,,1767084372.501875,1
0.0,16.79,,,2113750.0,1767084372.536875,1
0.0,12.95,,,2113750.0,1767084372.571875,1
0.0,6.72,,,2111022.0,1767084372.606875,1
0.0,-0.2966666666666667,,,2107399.0,1767084372.641875,1
0.0,-7.495,,,2102225.0,1767084372.676875,1
0.0,-17.68,,,2096339.0,1767084372.711875,1
0.0,-31.49,,,2090228.0,1767084372.746875,1
0.0,-43.25333333333333,0.525156,34.93,2085269.0,1767084372.781875,1
0.0,-37.565,,,,1767084372.816875,1
0.0,-19.705,,,2080640.0,1767084372.851875,1
0.0,-0.6899999999999997,,,2077219.0,1767084372.886875,1
0.0,11.62,,,2073885.0,1767084372.921875,1
0.0,16.396666666666665,,,2071740.0,1767084372.956875,1
0.0,14.84,,,2070506.0,1767084372.991875,1
0.0,12.025,0.523875,34.93,2067853.0,1767084373.026875,1
0.0,11.63,,,2063008.0,1767084373.061875,1
0.0,16.936666666666667,,,,1767084373.096875,1
0.0,22.885,,,2057326.0,1767084373.131875,1
0.0,23.065,,,2052250.0,1767084373.166875,1
0.0,19.465,,,2048780.0,1767084373.201875,1
0.0,13.146666666666668,,,2047251.0,1767084373.236875,1
0.0,5.699999999999999,0.521313,34.93,2048402.0,1767084373.271875,1
0.0,-1.47,,,2049749.0,1767084373.306875,1
0.0,-9.605,,,2051069.0,1767084373.341875,1
0.0,-22.496666666666663,,,2053137.0,1767084373.376875,1
0.0,-33.099999999999994,,,,1767084373.411875,1
0.0,-28.81,,,2054741.0,1767084373.446875,1
0.0,-11.38,,,2055940.0,1767084373.481875,1
0.0,12.986666666666666,0.521313,34.93,2056722.0,1767084373.516875,1
0.0,27.455,,,2057175.0,1767084373.551875,1
0.0,31.355,,,2056910.0,1767084373.586875,1
0.0,30.555,,,2055899.0,1767084373.621875,1
0.0,26.016666666666666,,,2053270.0,1767084373.656875,1
0.0,23.575,,,2050922.0,1767084373.691875,1
0.0,24.63,,,2048830.0,1767084373.726875,1
0.0,25.585,0.523875,34.93,,1767084373.761875,1
0.0,24.9,,,2047280.0,1767084373.796875,1
0.0,22.786666666666665,,,2046160.0,1767084373.831875,1
0.0,19.135,,,2044538.0,1767084373.866875,1
0.0,13.775,,,2043253.0,1767084373.901875,1
0.0,7.605,,,2043445.0,1767084373.936875,1
0.0,0.3333333333333335,,,2043897.0,1767084373.971875,1
0.0,-9.265,0.522594,34.93,2044186.0,1767084374.006875,1
0.0,-16.6,,,2044707.0,1767084374.041875,1
0.0,-15.58,,,,1767084374.076875,1
0.0,1.2866666666666664,,,2045009.0,1767084374.111875,1
0.0,23.77,,,2045460.0,1767084374.146875,1
0.0,38.225,,,2046219.0,1767084374.181875,1
0.0,47.315,,,2046638.0,1767084374.216875,1
0.0,49.45666666666667,0.518752,34.95,2047149.0,1767084374.251875,1
0.0,43.465,,,2047635.0,1767084374.286875,1
0.0,36.855,,,,1767084374.321875,1
0.0,32.18,,,2048388.0,1767084374.356875,1
0.0,28.09,,,2049382.0,1767084374.391875,1
0.0,23.29,,,2050303.0,1767084374.426875,1
0.0,18.11,,,2050533.0,1767084374.461875,1
0.0,11.345,,,2050882.0,1767084374.496875,1
0.0,0.6433333333333332,0.517471,34.95,2051579.0,1767084374.531875,1
0.0,-9.835,,,2050726.0,1767084374.566875,1
0.0,-15.465,,,,1767084374.601875,1
0.0,-19.49,,,2048687.0,1767084374.636875,1
0.0,-25.805,,,2046140.0,1767084374.671875,1
0.0,-39.31,,,2044111.0,1767084374.706875,1
0.0,-50.155,,,2042645.0,1767084374.741875,1
0.0,-47.29,0.521313,34.95,2041690.0,1767084374.776875,1
0.0,-33.36,,,2041296.0,1767084374.811875,1
0.0,-9.660000000000002,,,2041191.0,1767084374.846875,1
0.0,11.36,,,,1767084374.881875,1
0.0,22.085,,,2041486.0,1767084374.916875,1
0.0,25.84,,,2042167.0,1767084374.951875,1
0.0,23.406666666666663,,,2043759.0,1767084374.986875,1
0.0,20.145,0.521313,34.95,2044594.0,1767084375.021875,1
0.0,18.905,,,2046051.0,1767084375.056875,1
0.0,17.43,,,2047604.0,1767084375.091875,1
0.0,13.94,,,2049438.0,1767084375.126875,1
0.0,10.595,,,,1767084375.161875,1
0.0,9.18,,,2051011.0,1767084375.196875,1
0.0,6.93,,,2052164.0,1767084375.231875,1
0.0,0.5699999999999998,0.521313,34.97,2053464.0,1767084375.266875,1
0.0,-5.635,,,2054321.0,1767084375.301875,1
0.0,-7.55,,,2055205.0,1767084375.336875,1
0.0,-9.135,,,2055174.0,1767084375.371875,1
0.0,-14.53,,,,1767084375.406875,1
0.0,-21.18,,,2054068.0,1767084375.441875,1
0.0,-25.03,,,2052748.0,1767084375.476875,1
0.0,-29.435,0.514909,34.97,2051614.0,1767084375.511875,1
0.0,-38.620000000000005,,,2050876.0,1767084375.546875,1
0.0,-58.50333333333333,,,2050482.0,1767084375.581875,1
0.0,-75.675,,,2050416.0,1767084375.616875,1
0.0,-74.91,,,2050162.0,1767084375.651875,1
0.0,-60.92,,,,1767084375.686875,1
0.0,-39.08,,,2050652.0,1767084375.721875,1
0.0,-21.525,0.522594,34.97,2051201.0,1767084375.756875,1
0.0,-9.0,,,2052265.0,1767084375.791875,1
0.0,2.39,,,2053876.0,1767084375.826875,1
0.0,13.266666666666666,,,2055611.0,1767084375.861875,1
0.0,26.33,,,2057252.0,1767084375.896875,1
0.0,42.21,,,2058744.0,1767084375.931875,1
0.0,59.225,,,,1767084375.966875,1
0.0,76.79,0.521313,34.97,2060183.0,1767084376.001875,1
0.0,92.885,,,2062194.0,1767084376.036875,1
0.0,108.34,,,2064415.0,1767084376.071875,1
0.0,126.035,,,2066892.0,1767084376.106875,1
0.0,141.26,,,2069131.0,1767084376.141875,1
0.0,136.285,,,2069246.0,1767084376.176875,1
0.0,114.29,,,2068296.0,1767084376.211875,1
0.0,83.985,,,,1767084376.246875,1
0.0,46.656666666666666,0.520033,34.95,2067569.0,1767084376.281875,1
0.0,19.11,,,2066850.0,1767084376.316875,1
0.0,8.290000000000001,,,2066341.0,1767084376.351875,1
0.0,5.925,,,2066277.0,1767084376.386875,1
0.0,7.04,,,2066510.0,1767084376.421875,1
0.0,-1.1133333333333335,,,2066470.0,1767084376.456875,1
0.0,-29.76,,,2066295.0,1767084376.491875,1
0.0,-64.58,0.520033,34.95,,1767084376.526875,1
0.0,-97.02,,,2066444.0,1767084376.561875,1
0.0,-120.60333333333334,,,2066270.0,1767084376.596875,1
0.0,-126.1,,,2066531.0,1767084376.631875,1
0.0,-120.925,,,2066586.0,1767084376.666875,1
0.0,-111.255,,,2067146.0,1767084376.701875,1
0.0,-93.5,,,2067632.0,1767084376.736875,1
0.0,-70.55000000000001,0.521313,34.95,2068115.0,1767084376.771875,1
0.0,-52.165,,,,1767084376.806875,1
0.0,-38.78,,,2068683.0,1767084376.841875,1
0.0,-29.776666666666667,,,2068673.0,1767084376.876875,1
0.0,-23.785,,,2069202.0,1767084376.911875,1
0.0,-20.415,,,2068908.0,1767084376.946875,1
0.0,-20.275,,,2067008.0,1767084376.981875,1
0.0,-23.936666666666667,0.523875,34.95,2065300.0,1767084377.016875,1
0.0,-26.5,,,2063563.0,1767084377.051875,1
0.0,-26.365,,,,1767084377.086875,1
0.0,-26.975,,,2062153.0,1767084377.121875,1
0.0,-31.430000000000003,,,2061396.0,1767084377.156875,1
0.0,-35.905,,,2060326.0,1767084377.191875,1
0.0,-32.55,,,2059759.0,1767084377.226875,1
0.0,-19.115,0.523875,34.93,2058765.0,1767084377.261875,1
0.0,0.7449999999999997,,,2057772.0,1767084377.296875,1
0.0,21.563333333333333,,,2057921.0,1767084377.331875,1
0.0,32.565,,,,1767084377.366875,1
0.0,36.2,,,2061299.0,1767084377.401875,1
0.0,37.025,,,2066730.0,1767084377.436875,1
0.0,34.29333333333333,,,2072524.0,1767084377.471875,1
0.0,30.145,0.520033,34.93,2077872.0,1767084377.506875,1
0.0,26.5,,,2082223.0,1767084377.541875,1
0.0,22.23,,,2086635.0,1767084377.576875,1
0.0,17.136666666666667,,,2089366.0,1767084377.611875,1
0.0,12.095,,,,1767084377.646875,1
0.0,7.210000000000001,,,2090311.0,1767084377.681875,1
0.0,2.47,,,2089655.0,1767084377.716875,1
0.0,-2.7466666666666666,0.520033,34.93,2087333.0,1767084377.751875,1
0.0,-8.77,,,2085342.0,1767084377.786875,1
0.0,-13.94,,,2082521.0,1767084377.821875,1
0.0,-18.44,,,2080261.0,1767084377.856875,1
0.0,-25.113333333333333,,,2078236.0,1767084377.891875,1
0.0,-36.195,,,,1767084377.926875,1
0.0,-46.78,,,2076588.0,1767084377.961875,1
0.0,-51.3,,,2074477.0,1767084377.996875,1
0.0,-39.71666666666667,0.522594,34.93,2071958.0,1767084378.031875,1
0.0,-15.985,,,2069857.0,1767084378.066875,1
0.0,3.5850000000000004,,,2068594.0,1767084378.101875,1
0.0,19.115,,,2067552.0,1767084378.136875,1
0.0,29.735,,,,1767084378.171875,1
0.0,35.629999999999995,,,2067849.0,1767084378.206875,1
0.0,36.155,,,2068434.0,1767084378.241875,1
0.0,36.615,0.520033,34.95,2069198.0,1767084378.276875,1
0.0,39.595,,,2069826.0,1767084378.311875,1
0.0,43.54,,,2070658.0,1767084378.346875,1
0.0,44.815,,,2071556.0,1767084378.381875,1
0.0,45.475,,,2071601.0,1767084378.416875,1
0.0,45.775,,,,1767084378.451875,1
0.0,41.54,,,2070723.0,1767084378.486875,1
0.0,34.69,0.518752,34.95,2069454.0,1767084378.521875,1
0.0,31.92,,,2068428.0,1767084378.556875,1
0.0,30.495,,,2067620.0,1767084378.591875,1
0.0,25.883333333333336,,,2067735.0,1767084378.626875,1
0.0,23.74,,,2068216.0,1767084378.661875,1
0.0,28.995,,,2068983.0,1767084378.696875,1
0.0,35.58,,,,1767084378.731875,1
0.0,38.06666666666667,0.521313,34.95,2069569.0,1767084378.766875,1
0.0,40.02,,,2070448.0,1767084378.801875,1
0.0,51.685,,,2071422.0,1767084378.836875,1
0.0,78.60499999999999,,,2072997.0,1767084378.871875,1
0.0,118.25,,,2074310.0,1767084378.906875,1
0.0,129.805,,,2075915.0,1767084378.941875,1
0.0,113.78,,,2077197.0,1767084378.976875,1
0.0,100.855,0.520033,34.95,,1767084379.011875,1
0.0,98.17,,,2078716.0,1767084379.046875,1
0.0,74.46000000000001,,,2079998.0,1767084379.081875,1
0.0,10.4,,,2081373.0,1767084379.116875,1
0.0,-54.14,,,2082443.0,1767084379.151875,1
0.0,-108.095,,,2082444.0,1767084379.186875,1
0.0,-146.82000000000002,,,2081762.0,1767084379.221875,1
0.0,-156.64,0.521313,34.95,2081510.0,1767084379.256875,1
0.0,-150.07,,,,1767084379.291875,1
0.0,-141.375,,,2081495.0,1767084379.326875,1
0.0,-131.44333333333336,,,2081707.0,1767084379.361875,1
0.0,-118.645,,,2081700.0,1767084379.396875,1
0.0,-108.37,,,2081986.0,1767084379.431875,1
0.0,-102.48,,,2081674.0,1767084379.466875,1
0.0,-92.23666666666666,0.517471,34.95,2081453.0,1767084379.501875,1
0.0,-65.755,,,2081853.0,1767084379.536875,1
0.0,-36.805,,,,1767084379.571875,1
0.0,-13.72,,,2082350.0,1767084379.606875,1
0.0,1.4533333333333331,,,2082851.0,1767084379.641875,1
0.0,6.975,,,2083087.0,1767084379.676875,1
0.0,6.185,,,2083573.0,1767084379.711875,1
0.0,3.35,,,2084047.0,1767084379.746875,1
0.0,0.6333333333333333,0.517471,34.95,2084439.0,1767084379.781875,1
0.0,-0.4649999999999999,,,2085014.0,1767084379.816875,1
0.0,-0.695,,,,1767084379.851875,1
0.0,-0.33,,,2085510.0,1767084379.886875,1
0.0,0.725,,,2085516.0,1767084379.921875,1
0.0,0.9566666666666668,,,2084620.0,1767084379.956875,1
0.0,-2.41,,,2083977.0,1767084379.991875,1
0.0,-6.475,0.517471,34.95,2083182.0,1767084380.026875,1
0.0,-8.475000000000001,,,2083023.0,1767084380.061875,1
0.0,-9.396666666666668,,,2084643.0,1767084380.096875,1
0.0,-15.3,,,2086018.0,1767084380.131875,1
0.0,-25.42,,,,1767084380.166875,1
0.0,-34.425,,,2087028.0,1767084380.201875,1
0.0,-31.89333333333333,,,2088722.0,1767084380.236875,1
0.0,-12.88,0.518752,34.99,2089039.0,1767084380.271875,1
0.0,7.5,,,2088369.0,1767084380.306875,1
0.0,24.245,,,2087895.0,1767084380.341875,1
0.0,36.830000000000005,,,2086523.0,1767084380.376875,1
0.0,42.025000000000006,,,2085229.0,1767084380.411875,1
0.0,41.705,,,,1767084380.446875,1
0.0,40.465,,,2083604.0,1767084380.481875,1
0.0,40.81,0.51619,34.99,2081796.0,1767084380.516875,1
0.0,41.305,,,2078971.0,1767084380.551875,1
0.0,39.465,,,2074650.0,1767084380.586875,1
0.0,35.725,,,2071204.0,1767084380.621875,1
0.0,29.07333333333333,,,2067754.0,1767084380.656875,1
0.0,19.61,,,2062261.0,1767084380.691875,1
0.0,10.08,,,,1767084380.726875,1
0.0,1.06,0.518752,34.99,2056187.0,1767084380.761875,1
0.0,-6.055,,,2053284.0,1767084380.796875,1
0.0,-13.79,,,2052106.0,1767084380.831875,1
0.0,-23.535,,,2053074.0,1767084380.866875,1
0.0,-33.885000000000005,,,2052470.0,1767084380.901875,1
0.0,-43.63,,,2051834.0,1767084380.936875,1
0.0,-45.06666666666666,,,2051189.0,1767084380.971875,1
0.0,-30.630000000000003,0.517471,34.99,,1767084381.006875,1
0.0,-11.89,,,2051884.0,1767084381.041875,1
0.0,5.949999999999999,,,2053823.0,1767084381.076875,1
0.0,22.91,,,2055887.0,1767084381.111875,1
0.0,32.315,,,2057720.0,1767084381.146875,1
0.0,34.05,,,2060212.0,1767084381.181875,1
0.0,35.225,,,2063601.0,1767084381.216875,1
0.0,40.47,0.518752,34.97,2066417.0,1767084381.251875,1
0.0,46.78,,,2068920.0,1767084381.286875,1
0.0,49.825,,,,1767084381.321875,1
0.0,51.1,,,2070146.0,1767084381.356875,1
0.0,51.81666666666666,,,2070212.0,1767084381.391875,1
0.0,51.945,,,2070314.0,1767084381.426875,1
0.0,49.395,,,2070895.0,1767084381.461875,1
0.0,43.03,,,2071129.0,1767084381.496875,1
0.0,32.22,0.514909,34.97,2071928.0,1767084381.531875,1
0.0,21.005,,,2072484.0,1767084381.566875,1
0.0,10.945,,,,1767084381.601875,1
0.0,-0.7749999999999999,,,2072974.0,1767084381.636875,1
0.0,-12.84,,,2073051.0,1767084381.671875,1
0.0,-19.916666666666668,,,2073582.0,1767084381.706875,1
0.0,-9.435,,,2074481.0,1767084381.741875,1
0.0,10.17,0.513628,34.97,2075390.0,1767084381.776875,1
0.0,27.55,,,2077184.0,1767084381.811875,1
0.0,34.04,,,2078817.0,1767084381.846875,1
0.0,26.695,,,,1767084381.881875,1
0.0,15.715,,,2079852.0,1767084381.916875,1
0.0,5.08,,,2081107.0,1767084381.951875,1
0.0,-3.45,,,2081924.0,1767084381.986875,1
0.0,-7.3,0.517471,34.97,2081737.0,1767084382.021875,1
0.0,-10.145,,,2080541.0,1767084382.056875,1
0.0,-14.37,,,2079663.0,1767084382.091875,1
0.0,-19.936666666666667,,,2078999.0,1767084382.126875,1
0.0,-26.84,,,2078707.0,1767084382.161875,1
0.0,-34.120000000000005,,,2079097.0,1767084382.196875,1
0.0,-39.865,,,,1767084382.231875,1
0.0,-43.02333333333333,0.51619,34.97,2079389.0,1767084382.266875,1
0.0,-47.185,,,2079866.0,1767084382.301875,1
0.0,-53.88,,,2080205.0,1767084382.336875,1
0.0,-59.545,,,2080665.0,1767084382.371875,1
0.0,-54.50666666666667,,,2081443.0,1767084382.406875,1
0.0,-34.75,,,2082010.0,1767084382.441875,1
0.0,-14.275,,,2082010.0,1767084382.476875,1
0.0,3.205,0.514909,34.97,2082907.0,1767084382.511875,1
0.0,14.985,,,2083709.0,1767084382.546875,1
0.0,20.746666666666663,,,,1767084382.581875,1
0.0,20.895,,,2084563.0,1767084382.616875,1
0.0,20.955,,,2085447.0,1767084382.651875,1
0.0,22.465,,,2086023.0,1767084382.686875,1
0.0,24.92,,,2085609.0,1767084382.721875,1
0.0,26.56,0.511066,34.97,2084411.0,1767084382.756875,1
0.0,26.01,,,2083357.0,1767084382.791875,1
0.0,22.62,,,,1767084382.826875,1
0.0,14.636666666666663,,,2082544.0,1767084382.861875,1
0.0,4.805,,,2081999.0,1767084382.896875,1
0.0,-4.085,,,2082040.0,1767084382.931875,1
0.0,-14.98,,,2082080.0,1767084382.966875,1
0.0,-32.43666666666667,0.508505,34.97,2082476.0,1767084383.001875,1
0.0,-48.31,,,2082741.0,1767084383.036875,1
0.0,-49.785,,,2083620.0,1767084383.071875,1
0.0,-37.195,,,,1767084383.106875,1
0.0,-12.906666666666666,,,2084504.0,1767084383.141875,1
0.0,5.425,,,2085202.0,1767084383.176875,1
0.0,13.6,,,2085893.0,1767084383.211875,1
0.0,18.535,,,2085472.0,1767084383.246875,1
0.0,20.23333333333333,0.511066,34.97,2086165.0,1767084383.281875,1
0.0,19.700000000000003,,,2085295.0,1767084383.316875,1
0.0,20.475,,,2081863.0,1767084383.351875,1
0.0,21.94,,,2077347.0,1767084383.386875,1
0.0,22.56,,,2073582.0,1767084383.421875,1
0.0,22.62333333333333,,,2071186.0,1767084383.456875,1
0.0,21.935,,,,1767084383.491875,1
0.0,18.415,0.509786,34.97,2066193.0,1767084383.526875,1
0.0,11.965,,,2060449.0,1767084383.561875,1
0.0,4.023333333333333,,,2055702.0,1767084383.596875,1
0.0,-1.485,,,2055098.0,1767084383.631875,1
0.0,-6.63,,,2058956.0,1767084383.666875,1
0.0,-14.535,,,2062696.0,1767084383.701875,1
0.0,-21.156666666666663,,,2066182.0,1767084383.736875,1
0.0,-12.52,0.511066,34.97,,1767084383.771875,1
0.0,5.945,,,2067731.0,1767084383.806875,1
0.0,21.925,,,2069538.0,1767084383.841875,1
0.0,24.13,,,2070544.0,1767084383.876875,1
0.0,15.265,,,2071838.0,1767084383.911875,1
0.0,13.52,,,2073481.0,1767084383.946875,1
0.0,21.415,,,2075638.0,1767084383.981875,1
0.0,36.57,0.505943,34.97,,1767084384.016875,1
0.0,47.895,,,2077194.0,1767084384.051875,1
0.0,51.16,,,2078079.0,1767084384.086875,1
0.0,49.010000000000005,,,2079484.0,1767084384.121875,1
0.0,39.29,,,2080746.0,1767084384.156875,1
0.0,23.44,,,2082158.0,1767084384.191875,1
0.0,6.9,,,2083121.0,1767084384.226875,1
0.0,-9.835,0.505943,34.99,2082477.0,1767084384.261875,1
0.0,-23.225,,,2081520.0,1767084384.296875,1
0.0,-32.85666666666666,,,,1767084384.331875,1
0.0,-38.615,,,2080726.0,1767084384.366875,1
0.0,-45.48,,,2079815.0,1767084384.401875,1
0.0,-56.285,,,2079300.0,1767084384.436875,1
0.0,-68.40333333333334,,,2079481.0,1767084384.471875,1
0.0,-68.095,0.508505,34.99,2079577.0,1767084384.506875,1
0.0,-54.945,,,2079735.0,1767084384.541875,1
0.0,-36.49,,,2080066.0,1767084384.576875,1
0.0,-15.633333333333333,,,,1767084384.611875,1
0.0,1.705,,,2080630.0,1767084384.646875,1
0.0,13.725,,,2081367.0,1767084384.681875,1
0.0,22.61,,,2081901.0,1767084384.716875,1
0.0,28.83666666666667,0.505943,34.99,2082810.0,1767084384.751875,1
0.0,33.07,,,2083757.0,1767084384.786875,1
0.0,34.835,,,2084945.0,1767084384.821875,1
0.0,33.52,,,,1767084384.856875,1
0.0,27.73,,,2086007.0,1767084384.891875,1
0.0,18.3,,,2087564.5,1767084384.926875,1
0.0,7.555,,,,1767084384.961875,1
0.0,-4.265000000000001,,,2088218.0,1767084384.996875,1
0.0,-18.023333333333333,0.504662,34.99,2086790.0,1767084385.031875,1
0.0,-32.115,,,2085502.0,1767084385.066875,1
0.0,-43.905,,,2084538.0,1767084385.101875,1
0.0,-53.675,,,2083646.0,1767084385.136875,1
0.0,-60.33,,,2083366.0,1767084385.171875,1
0.0,-67.21666666666667,,,2083325.0,1767084385.206875,1
0.0,-75.65,,,,1767084385.241875,1
0.0,-80.91999999999999,0.504662,34.99,2083339.0,1767084385.276875,1
0.0,-77.63499999999999,,,2083380.0,1767084385.311875,1
0.0,-55.23666666666667,,,2083581.0,1767084385.346875,1
0.0,-23.895000000000003,,,2084572.0,1767084385.381875,1
0.0,-3.085,,,2086376.0,1767084385.416875,1
0.0,11.56,,,2087637.0,1767084385.451875,1
0.0,24.163333333333338,,,2086758.0,1767084385.486875,1
0.0,30.765,0.505943,34.99,,1767084385.521875,1
0.0,31.935,,,2086998.0,1767084385.556875,1
0.0,33.53,,,2089481.0,1767084385.591875,1
0.0,37.583333333333336,,,2092918.0,1767084385.626875,1
0.0,39.345,,,2093149.0,1767084385.661875,1
0.0,38.015,,,2089263.0,1767084385.696875,1
0.0,36.045,,,2083903.0,1767084385.731875,1
0.0,32.27,0.505943,34.99,2078835.0,1767084385.766875,1
0.0,25.48,,,2074988.0,1767084385.801875,1
0.0,17.884999999999998,,,2069053.0,1767084385.836875,1
0.0,10.045,,,,1767084385.871875,1
0.0,1.6866666666666663,,,2063731.0,1767084385.906875,1
0.0,-6.745,,,2060275.0,1767084385.941875,1
0.0,-16.11,,,2058949.0,1767084385.976875,1
0.0,-27.175,0.50082,34.99,2059648.0,1767084386.011875,1
0.0,-34.835,,,2060371.0,1767084386.046875,1
0.0,-29.12,,,2061171.0,1767084386.081875,1
0.0,-8.515,,,2062336.0,1767084386.116875,1
0.0,9.955,,,,1767084386.151875,1
0.0,23.42,,,2063573.0,1767084386.186875,1
0.0,32.803333333333335,,,2064927.0,1767084386.221875,1
0.0,35.725,0.504662,34.99,2066334.0,1767084386.256875,1
0.0,34.504999999999995,,,2067921.0,1767084386.291875,1
0.0,33.760000000000005,,,2068621.0,1767084386.326875,1
0.0,35.81333333333333,,,2069737.0,1767084386.361875,1
0.0,38.285,,,,1767084386.396875,1
0.0,38.045,,,2070463.0,1767084386.431875,1
0.0,35.66,,,2069872.0,1767084386.466875,1
0.0,31.836666666666662,0.504662,34.99,2068913.0,1767084386.501875,1
0.0,28.165,,,2067982.0,1767084386.536875,1
0.0,24.205,,,2067311.0,1767084386.571875,1
0.0,19.29,,,2066955.0,1767084386.606875,1
0.0,14.29,,,2067114.0,1767084386.641875,1
0.0,10.57,,,2067206.0,1767084386.676875,1
0.0,5.505,,,,1767084386.711875,1
0.0,-3.685,,,2067047.0,1767084386.746875,1
0.0,-17.55,0.503381,34.99,2067519.0,1767084386.781875,1
0.0,-23.59,,,2067893.0,1767084386.816875,1
0.0,-15.04,,,2068031.0,1767084386.851875,1
0.0,3.3,,,2068543.0,1767084386.886875,1
0.0,23.01,,,2068968.0,1767084386.921875,1
0.0,37.653333333333336,,,2069244.0,1767084386.956875,1
0.0,38.48,,,,1767084386.991875,1
0.0,30.045,0.498258,34.99,2069334.0,1767084387.026875,1
0.0,19.295,,,2069580.0,1767084387.061875,1
0.0,10.27,,,2069075.0,1767084387.096875,1
0.0,4.43,,,2067615.0,1767084387.131875,1
0.0,-1.25,,,2065954.0,1767084387.166875,1
0.0,-7.015000000000001,,,2064877.0,1767084387.201875,1
0.0,-13.783333333333331,,,2064121.0,1767084387.236875,1
0.0,-23.41,0.499539,34.99,,1767084387.271875,1
0.0,-32.795,,,2063634.0,1767084387.306875,1
0.0,-40.445,,,2063460.0,1767084387.341875,1
0.0,-47.84,,,2063211.0,1767084387.376875,1
0.0,-57.06,,,2063211.0,1767084387.411875,1
0.0,-65.985,,,2063123.0,1767084387.446875,1
0.0,-71.525,,,2062830.0,1767084387.481875,1
0.0,-64.22333333333333,0.5021,34.99,2062985.0,1767084387.516875,1
0.0,-41.21,,,2063440.0,1767084387.551875,1
0.0,-18.12,,,,1767084387.586875,1
0.0,0.73,,,2063434.0,1767084387.621875,1
0.0,14.420000000000002,,,2064010.0,1767084387.656875,1
0.0,19.705,,,2064185.0,1767084387.691875,1
0.0,19.715,,,2065073.0,1767084387.726875,1
0.0,19.83,0.50082,34.99,2066032.0,1767084387.761875,1
0.0,22.245,,,2066522.0,1767084387.796875,1
0.0,25.14,,,2065871.0,1767084387.831875,1
0.0,23.27,,,,1767084387.866875,1
0.0,19.285,,,2065329.0,1767084387.901875,1
0.0,15.06,,,2064766.0,1767084387.936875,1
0.0,7.043333333333333,,,2063936.0,1767084387.971875,1
0.0,-3.145,0.498258,34.99,2062733.0,1767084388.006875,1
0.0,-9.7,,,2060952.0,1767084388.041875,1
0.0,-16.25,,,2058859.0,1767084388.076875,1
0.0,-29.673333333333336,,,2055986.0,1767084388.111875,1
0.0,-43.27,,,,1767084388.146875,1
0.0,-43.645,,,2053113.0,1767084388.181875,1
0.0,-31.195,,,2049885.0,1767084388.216875,1
0.0,-7.456666666666668,0.50082,34.99,2047622.0,1767084388.251875,1
0.0,12.295,,,2046394.0,1767084388.286875,1
0.0,21.685,,,2047194.0,1767084388.321875,1
0.0,25.73,,,2048130.0,1767084388.356875,1
0.0,24.870000000000005,,,,1767084388.391875,1
0.0,22.465,,,2049297.0,1767084388.426875,1
0.0,21.54,,,2051187.0,1767084388.461875,1
0.0,21.135,,,2052595.0,1767084388.496875,1
0.0,21.1,0.5021,34.99,2052757.0,1767084388.531875,1
0.0,20.34,,,2052675.0,1767084388.566875,1
0.0,16.565,,,2053361.0,1767084388.601875,1
0.0,9.705,,,2053512.0,1767084388.636875,1
0.0,2.6100000000000003,,,2054785.0,1767084388.671875,1
0.0,-3.2266666666666666,,,,1767084388.706875,1
0.0,-9.06,,,2055412.0,1767084388.741875,1
0.0,-17.57,0.50082,34.99,2058021.0,1767084388.776875,1
0.0,-26.69,,,2061030.0,1767084388.811875,1
0.0,-25.27,,,2064122.0,1767084388.846875,1
0.0,-3.6,,,2066770.0,1767084388.881875,1
0.0,23.725,,,2068594.0,1767084388.916875,1
0.0,49.565,,,2070829.0,1767084388.951875,1
0.0,70.39666666666666,,,,1767084388.986875,1
0.0,76.54499999999999,0.496977,34.99,2073533.0,1767084389.021875,1
0.0,71.43,,,2076237.0,1767084389.056875,1
0.0,62.815,,,2079116.0,1767084389.091875,1
0.0,53.52333333333333,,,2082019.0,1767084389.126875,1
0.0,45.955,,,2084469.0,1767084389.161875,1
0.0,38.355,,,2085952.0,1767084389.196875,1
0.0,27.15,,,2086142.0,1767084389.231875,1
0.0,7.95,0.494415,34.97,,1767084389.266875,1
0.0,-11.675,,,2086073.0,1767084389.301875,1
0.0,-22.545,,,2086051.0,1767084389.336875,1
0.0,-27.71,,,,1767084389.371875,1
0.0,-31.423333333333336,,,2085944.0,1767084389.406875,1
0.0,-40.05,,,2085665.0,1767084389.441875,1
0.0,-51.34,,,2085339.0,1767084389.476875,1
0.0,-59.205,0.494415,34.97,2085485.0,1767084389.511875,1
0.0,-56.31,,,2085960.0,1767084389.546875,1
0.0,-38.18666666666667,,,2085950.0,1767084389.581875,1
0.0,-17.155,,,,1767084389.616875,1
0.0,-4.565,,,2086599.0,1767084389.651875,1
0.0,4.22,,,2086899.0,1767084389.686875,1
0.0,9.386666666666668,,,2087421.0,1767084389.721875,1
0.0,6.77,0.496977,34.97,2087953.0,1767084389.756875,1
0.0,0.6599999999999999,,,2088747.0,1767084389.791875,1
0.0,-4.605,,,2088830.0,1767084389.826875,1
0.0,-8.286666666666667,,,2088028.0,1767084389.861875,1
0.0,-10.71,,,2086551.0,1767084389.896875,1
0.0,-12.7,,,,1767084389.931875,1
0.0,-15.510000000000002,,,2085547.0,1767084389.966875,1
0.0,-20.686666666666664,0.496977,34.97,2084545.0,1767084390.001875,1
0.0,-27.415,,,2083742.0,1767084390.036875,1
0.0,-33.05,,,2083375.0,1767084390.071875,1
0.0,-37.68,,,2083098.0,1767084390.106875,1
0.0,-43.25666666666666,,,2083057.0,1767084390.141875,1
0.0,-51.38,,,2082131.0,1767084390.176875,1
0.0,-58.97,,,,1767084390.211875,1
0.0,-61.985,,,2079981.0,1767084390.246875,1
0.0,-49.873333333333335,0.493134,34.99,2078778.0,1767084390.281875,1
0.0,-23.85,,,2078494.0,1767084390.316875,1
0.0,-2.2250000000000005,,,2078672.0,1767084390.351875,1
0.0,13.25,,,2078881.0,1767084390.386875,1
0.0,22.095,,,2079274.0,1767084390.421875,1
0.0,25.266666666666666,,,2081181.0,1767084390.456875,1
0.0,23.755000000000003,,,,1767084390.491875,1
0.0,22.82,0.493134,34.99,2081826.0,1767084390.526875,1
0.0,23.41,,,2080148.0,1767084390.561875,1
0.0,24.41,,,2077557.0,1767084390.596875,1
0.0,24.725,,,2075314.0,1767084390.631875,1
0.0,23.505,,,2072920.0,1767084390.666875,1
0.0,19.295,,,2071157.0,1767084390.701875,1
0.0,10.693333333333332,,,2069686.0,1767084390.736875,1
0.0,2.835,0.493134,34.99,,1767084390.771875,1
0.0,-2.365,,,2067810.0,1767084390.806875,1
0.0,-9.57,,,2064727.0,1767084390.841875,1
0.0,-22.676666666666662,,,2062395.0,1767084390.876875,1
0.0,-31.79,,,2060809.0,1767084390.911875,1
0.0,-27.155,,,2059313.0,1767084390.946875,1
0.0,-12.595,,,2058863.0,1767084390.981875,1
0.0,7.1433333333333335,0.488011,34.99,2058906.0,1767084391.016875,1
0.0,20.155,,,2060228.0,1767084391.051875,1
0.0,24.95,,,2062334.0,1767084391.086875,1
0.0,25.17,,,,1767084391.121875,1
0.0,21.87333333333333,,,2064509.0,1767084391.156875,1
0.0,21.135,,,2066943.0,1767084391.191875,1
0.0,23.84,,,2068294.0,1767084391.226875,1
0.0,27.14,0.489292,34.95,2068883.0,1767084391.261875,1
0.0,29.99,,,2069639.0,1767084391.296875,1
0.0,33.973333333333336,,,2069906.0,1767084391.331875,1
0.0,38.305,,,,1767084391.366875,1
0.0,40.515,,,2070956.0,1767084391.401875,1
0.0,41.99,,,2071668.0,1767084391.436875,1
0.0,45.43333333333334,,,2070687.0,1767084391.471875,1
0.0,48.79,0.489292,34.95,2068773.0,1767084391.506875,1
0.0,47.625,,,2067045.0,1767084391.541875,1
0.0,44.295,,,2066199.0,1767084391.576875,1
0.0,48.383333333333326,,,2066633.0,1767084391.611875,1
0.0,65.83500000000001,,,,1767084391.646875,1
0.0,81.57,,,2068156.0,1767084391.681875,1
0.0,91.27,,,2069990.0,1767084391.716875,1
0.0,101.2,0.491853,34.95,2072455.0,1767084391.751875,1
0.0,116.0,,,2074053.0,1767084391.786875,1
0.0,123.325,,,2075712.0,1767084391.821875,1
0.0,109.23,,,2077437.0,1767084391.856875,1
0.0,44.693333333333335,,,2078671.0,1767084391.891875,1
0.0,-47.145,,,,1767084391.926875,1
0.0,-108.36,,,2078617.0,1767084391.961875,1
0.0,-142.815,,,2077970.0,1767084391.996875,1
0.0,-157.98333333333335,0.489292,34.95,2077983.0,1767084392.031875,1
0.0,-159.825,,,2078316.0,1767084392.066875,1
0.0,-151.82999999999998,,,2078920.0,1767084392.101875,1
0.0,-134.9,,,2079702.0,1767084392.136875,1
0.0,-114.425,,,2080236.0,1767084392.171875,1
0.0,-96.16666666666669,,,,1767084392.206875,1
0.0,-86.905,,,2080849.0,1767084392.241875,1
0.0,-78.00999999999999,0.490573,34.99,2081652.0,1767084392.276875,1
0.0,-61.19499999999999,,,2082673.0,1767084392.311875,1
0.0,-32.77333333333333,,,2083677.0,1767084392.346875,1
0.0,-7.765,,,2084710.0,1767084392.381875,1
0.0,3.715,,,2085637.0,1767084392.416875,1
0.0,6.99,,,2086607.0,1767084392.451875,1
0.0,4.156666666666666,,,,1767084392.486875,1
0.0,2.8,0.488011,34.99,2087740.0,1767084392.521875,1
0.0,5.140000000000001,,,2088685.0,1767084392.556875,1
0.0,6.945,,,2089842.0,1767084392.591875,1
0.0,6.236666666666667,,,2090542.0,1767084392.626875,1
0.0,4.800000000000001,,,2090032.0,1767084392.661875,1
0.0,2.79,,,2089485.0,1767084392.696875,1
0.0,-0.86,,,,1767084392.731875,1
0.0,-5.75,0.489292,34.99,2088758.0,1767084392.766875,1
0.0,-8.91,,,2088241.0,1767084392.801875,1
0.0,-10.835,,,2088392.0,1767084392.836875,1
0.0,-14.775,,,2088766.0,1767084392.871875,1
0.0,-25.236666666666668,,,2089094.0,1767084392.906875,1
0.0,-36.745,,,2089781.0,1767084392.941875,1
0.0,-38.225,,,2090350.0,1767084392.976875,1
0.0,-28.575,0.485449,34.99,2090689.0,1767084393.011875,1
0.0,-11.330000000000002,,,2091448.0,1767084393.046875,1
0.0,9.683333333333334,,,2092257.0,1767084393.081875,1
0.0,24.07,,,,1767084393.116875,1
0.0,30.63,,,2092782.0,1767084393.151875,1
0.0,33.730000000000004,,,2093064.0,1767084393.186875,1
0.0,33.660000000000004,,,2092700.0,1767084393.221875,1
0.0,32.724999999999994,0.482887,34.97,2092180.0,1767084393.256875,1
0.0,32.72,,,2091743.0,1767084393.291875,1
0.0,32.185,,,2091322.0,1767084393.326875,1
0.0,29.046666666666667,,,2090515.0,1767084393.361875,1
0.0,23.275,,,2089890.0,1767084393.396875,1
0.0,16.08,,,,1767084393.431875,1
0.0,6.58,,,2089617.0,1767084393.466875,1
0.0,-5.323333333333333,0.48673,34.97,2089505.0,1767084393.501875,1
0.0,-12.8,,,2089702.0,1767084393.536875,1
0.0,-15.0,,,2090509.0,1767084393.571875,1
0.0,-16.86,,,2091390.0,1767084393.606875,1
0.0,-21.313333333333333,,,2092174.0,1767084393.641875,1
0.0,-24.395,,,2092754.0,1767084393.676875,1
0.0,-19.285,,,,1767084393.711875,1
0.0,-5.28,,,2094031.0,1767084393.746875,1
0.0,15.466666666666669,0.489292,34.97,2094810.0,1767084393.781875,1
0.0,31.335,,,2095053.0,1767084393.816875,1
0.0,44.815,,,2095125.0,1767084393.851875,1
0.0,60.985,,,2095042.0,1767084393.886875,1
0.0,70.78999999999999,,,2094815.0,1767084393.921875,1
0.0,64.55666666666666,,,2093978.0,1767084393.956875,1
0.0,52.655,,,,1767084393.991875,1
0.0,53.44,0.485449,34.97,2093802.0,1767084394.026875,1
0.0,68.00999999999999,,,2093496.0,1767084394.061875,1
0.0,97.16666666666669,,,2092859.0,1767084394.096875,1
0.0,118.17,,,2090919.0,1767084394.131875,1
0.0,120.185,,,2088877.0,1767084394.166875,1
0.0,108.505,,,2087315.0,1767084394.201875,1
0.0,60.173333333333325,,,,1767084394.236875,1
0.0,-23.455,0.485449,34.99,2086209.0,1767084394.271875,1
0.0,-92.88,,,2085821.0,1767084394.306875,1
0.0,-145.60500000000002,,,2085501.0,1767084394.341875,1
0.0,-187.19333333333336,,,2085447.0,1767084394.376875,1
0.0,-197.415,,,2086085.0,1767084394.411875,1
0.0,-174.775,,,2087145.0,1767084394.446875,1
0.0,-139.235,,,2087599.0,1767084394.481875,1
0.0,-99.20333333333332,0.48673,34.99,,1767084394.516875,1
0.0,-63.48,,,2088444.0,1767084394.551875,1
0.0,-35.91,,,,1767084394.586875,1
0.0,-13.97,,,2089610.0,1767084394.621875,1
0.0,4.44,,,2090368.0,1767084394.656875,1
0.0,18.56,,,2091312.0,1767084394.691875,1
0.0,26.02,,,2092536.0,1767084394.726875,1
0.0,28.69,0.488011,34.99,2093542.0,1767084394.761875,1
0.0,27.495,,,2094140.0,1767084394.796875,1
0.0,23.496666666666663,,,2094606.0,1767084394.831875,1
0.0,19.29,,,,1767084394.866875,1
0.0,15.285,,,2094323.0,1767084394.901875,1
0.0,9.02,,,2093708.0,1767084394.936875,1
0.0,-0.8766666666666666,,,2092655.0,1767084394.971875,1
0.0,-9.21,0.484168,34.99,2091693.0,1767084395.006875,1
0.0,-14.435,,,2091278.0,1767084395.041875,1
0.0,-20.31,,,2091537.0,1767084395.076875,1
0.0,-28.99,,,,1767084395.111875,1
0.0,-34.02,,,2092737.0,1767084395.146875,1
0.0,-28.255000000000003,,,2096252.0,1767084395.181875,1
0.0,-12.345,,,2099379.0,1767084395.216875,1
0.0,12.46,0.48673,34.99,2102571.0,1767084395.251875,1
0.0,33.08,,,2105281.0,1767084395.286875,1
0.0,45.635000000000005,,,2105846.0,1767084395.321875,1
0.0,55.575,,,2104744.0,1767084395.356875,1
0.0,63.46666666666667,,,2102489.0,1767084395.391875,1
0.0,65.91,,,2099116.0,1767084395.426875,1
0.0,62.58,,,2095249.0,1767084395.461875,1
0.0,55.165,,,,1767084395.496875,1
0.0,41.833333333333336,0.484168,34.99,2092072.0,1767084395.531875,1
0.0,25.49,,,2089810.0,1767084395.566875,1
0.0,12.445,,,2088862.0,1767084395.601875,1
0.0,2.03,,,2088372.0,1767084395.636875,1
0.0,-6.77,,,2087410.0,1767084395.671875,1
0.0,-19.44333333333333,,,2085004.0,1767084395.706875,1
0.0,-33.245,,,2081852.0,1767084395.741875,1
0.0,-42.82,0.48673,34.99,,1767084395.776875,1
0.0,-51.370000000000005,,,2078862.0,1767084395.811875,1
0.0,-63.1,,,2075578.0,1767084395.846875,1
0.0,-74.205,,,2077406.0,1767084395.881875,1
0.0,-76.485,,,2073546.0,1767084395.916875,1
0.0,-68.57,,,2070237.0,1767084395.951875,1
0.0,-47.09333333333333,,,2068778.0,1767084395.986875,1
0.0,-22.82,0.482887,34.99,2069775.0,1767084396.021875,1
0.0,-6.775,,,,1767084396.056875,1
0.0,3.965,,,2071240.0,1767084396.091875,1
0.0,10.536666666666669,,,2071676.0,1767084396.126875,1
0.0,14.71,,,2072633.0,1767084396.161875,1
0.0,18.54,,,2075632.0,1767084396.196875,1
0.0,22.545,,,2077928.0,1767084396.231875,1
0.0,27.72666666666667,0.484168,34.99,2078739.0,1767084396.266875,1
0.0,32.385,,,2078836.0,1767084396.301875,1
0.0,33.06,,,,1767084396.336875,1
0.0,29.37,,,2078409.0,1767084396.371875,1
0.0,19.646666666666665,,,2077960.0,1767084396.406875,1
0.0,9.61,,,2077906.0,1767084396.441875,1
0.0,5.665,,,2078719.0,1767084396.476875,1
0.0,3.93,0.482887,34.99,2078836.0,1767084396.511875,1
0.0,-0.4549999999999999,,,2079043.0,1767084396.546875,1
0.0,-8.983333333333333,,,2079268.0,1767084396.581875,1
0.0,-9.935,,,,1767084396.616875,1
0.0,0.1149999999999999,,,2079625.0,1767084396.651875,1
0.0,14.8,,,2080269.0,1767084396.686875,1
0.0,29.666666666666668,,,2081111.0,1767084396.721875,1
0.0,37.89,0.484168,34.99,2082023.0,1767084396.756875,1
0.0,39.975,,,2082496.0,1767084396.791875,1
0.0,38.935,,,2083261.0,1767084396.826875,1
0.0,35.67666666666667,,,2083922.0,1767084396.861875,1
0.0,32.17,,,,1767084396.896875,1
0.0,28.075,,,2084428.0,1767084396.931875,1
0.0,22.53,,,2084543.0,1767084396.966875,1
0.0,15.48,0.481606,34.99,2083411.0,1767084397.001875,1
0.0,8.3,,,2082355.0,1767084397.036875,1
0.0,0.995,,,2081551.0,1767084397.071875,1
0.0,-7.210000000000001,,,2080641.0,1767084397.106875,1
0.0,-15.589999999999998,,,2080108.0,1767084397.141875,1
0.0,-21.29,,,,1767084397.176875,1
0.0,-26.235,,,2079780.0,1767084397.211875,1
0.0,-34.255,,,2079496.0,1767084397.246875,1
0.0,-45.74333333333334,0.479045,34.99,2079251.0,1767084397.281875,1
0.0,-48.71,,,2079307.0,1767084397.316875,1
0.0,-40.295,,,2079612.0,1767084397.351875,1
0.0,-27.99,,,2079920.0,1767084397.386875,1
0.0,-18.46,,,2079986.0,1767084397.421875,1
0.0,-12.589999999999998,,,,1767084397.456875,1
0.0,-10.4,,,2080527.0,1767084397.491875,1
0.0,-11.555,0.480326,34.99,2080786.0,1767084397.526875,1
0.0,-15.09,,,2081163.0,1767084397.561875,1
0.0,-19.953333333333333,,,2081889.0,1767084397.596875,1
0.0,-23.155,,,2082250.0,1767084397.631875,1
0.0,-23.58,,,2081689.0,1767084397.666875,1
0.0,-21.465,,,2079475.0,1767084397.701875,1
0.0,-17.886666666666667,,,,1767084397.736875,1
0.0,-18.9,0.481606,34.99,2073730.0,1767084397.771875,1
0.0,-24.035,,,2067239.0,1767084397.806875,1
0.0,-28.595,,,2062531.0,1767084397.841875,1
0.0,-29.16333333333333,,,2059557.0,1767084397.876875,1
0.0,-28.57,,,2058843.0,1767084397.911875,1
0.0,-32.105,,,2055963.0,1767084397.946875,1
0.0,-38.08,,,,1767084397.981875,1
0.0,-38.45,0.481606,34.99,2052288.0,1767084398.016875,1
0.0,-24.78,,,2049563.0,1767084398.051875,1
0.0,-7.475,,,2047098.0,1767084398.086875,1
0.0,7.76,,,2046755.0,1767084398.121875,1
0.0,20.926666666666662,,,2047346.0,1767084398.156875,1
0.0,29.205,,,2047067.0,1767084398.191875,1
0.0,31.565,,,2046469.0,1767084398.226875,1
0.0,31.03,0.477764,34.99,2046556.0,1767084398.261875,1
0.0,30.115,,,2049298.0,1767084398.296875,1
0.0,30.706666666666667,,,,1767084398.331875,1
0.0,31.01,,,2050729.0,1767084398.366875,1
0.0,29.18,,,2050727.0,1767084398.401875,1
0.0,26.335,,,2049999.0,1767084398.436875,1
0.0,21.866666666666664,,,2047848.0,1767084398.471875,1
0.0,14.965,0.476483,34.99,2046265.0,1767084398.506875,1
0.0,8.665,,,2044705.0,1767084398.541875,1
0.0,4.115,,,2043768.0,1767084398.576875,1
0.0,0.3566666666666667,,,,1767084398.611875,1
0.0,-3.875,,,2043010.0,1767084398.646875,1
0.0,-9.025,,,,1767084398.681875,1
0.0,-15.73,,,2042858.0,1767084398.716875,1
0.0,-19.64,0.479045,34.99,2042595.0,1767084398.751875,1
0.0,-10.915,,,2042762.0,1767084398.786875,1
0.0,4.745,,,2042698.0,1767084398.821875,1
0.0,20.78,,,2042758.0,1767084398.856875,1
0.0,35.28,,,2043168.0,1767084398.891875,1
0.0,44.535,,,,1767084398.926875,1
0.0,47.49,,,2043388.0,1767084398.961875,1
0.0,46.145,,,2043720.0,1767084398.996875,1
0.0,42.74,0.476483,34.99,2044374.0,1767084399.031875,1
0.0,40.375,,,2045388.0,1767084399.066875,1
0.0,36.650000000000006,,,2045835.0,1767084399.101875,1
0.0,30.6,,,2045489.0,1767084399.136875,1
0.0,24.745,,,2044924.0,1767084399.171875,1
0.0,19.13,,,,1767084399.206875,1
0.0,11.41,,,2045013.0,1767084399.241875,1
0.0,0.6000000000000001,0.473921,34.99,2045016.0,1767084399.276875,1
0.0,-12.155,,,2045257.0,1767084399.311875,1
0.0,-25.48,,,2046267.0,1767084399.346875,1
0.0,-37.545,,,2047046.0,1767084399.381875,1
0.0,-48.725,,,2047871.0,1767084399.416875,1
0.0,-59.010000000000005,,,2049014.0,1767084399.451875,1
0.0,-63.49333333333334,,,2050731.0,1767084399.486875,1
0.0,-54.785,0.473921,34.99,2050731.0,1767084399.521875,1
0.0,-39.45,,,2052106.0,1767084399.556875,1
0.0,-24.495,,,,1767084399.591875,1
0.0,-13.876666666666669,,,2053821.0,1767084399.626875,1
0.0,-9.815,,,2055226.0,1767084399.661875,1
0.0,-9.175,,,2056989.0,1767084399.696875,1
0.0,-9.0,,,2058116.0,1767084399.731875,1
0.0,-6.44,0.475202,34.99,2059484.0,1767084399.766875,1
0.0,-1.665,,,2060441.0,1767084399.801875,1
0.0,1.925,,,2059496.0,1767084399.836875,1
0.0,4.77,,,,1767084399.871875,1
0.0,6.806666666666668,,,2057903.0,1767084399.906875,1
0.0,6.05,,,2056428.0,1767084399.941875,1
0.0,3.84,,,2055275.0,1767084399.976875,1
0.0,1.78,0.47136,34.99,2054020.0,1767084400.011875,1
0.0,-0.205,,,2054299.0,1767084400.046875,1
0.0,-5.113333333333333,,,2054585.0,1767084400.081875,1
0.0,-13.045,,,2054902.0,1767084400.116875,1
0.0,-16.815,,,,1767084400.151875,1
0.0,-11.575,,,2055866.0,1767084400.186875,1
0.0,7.079999999999999,,,2057011.0,1767084400.221875,1
0.0,26.525,0.470079,34.99,2058622.0,1767084400.256875,1
0.0,37.195,,,2060901.0,1767084400.291875,1
0.0,43.68,,,2063039.0,1767084400.326875,1
0.0,45.53333333333333,,,2065843.0,1767084400.361875,1
0.0,43.28,,,,1767084400.396875,1
0.0,41.78,,,2068562.0,1767084400.431875,1
0.0,40.605,,,2071707.0,1767084400.466875,1
0.0,36.75333333333333,0.47136,34.99,2074306.0,1767084400.501875,1
0.0,30.935,,,2075380.0,1767084400.536875,1
0.0,24.965,,,2074992.0,1767084400.571875,1
0.0,16.560000000000002,,,2074858.0,1767084400.606875,1
0.0,3.773333333333333,,,2074450.0,1767084400.641875,1
0.0,-9.125,,,,1767084400.676875,1
0.0,-20.81,,,2074652.5,1767084400.711875,1
0.0,-34.305,,,,1767084400.746875,1
0.0,-49.46,0.47264,34.99,2075592.0,1767084400.781875,1
0.0,-55.605,,,2075848.0,1767084400.816875,1
0.0,-47.78,,,2075169.0,1767084400.851875,1
0.0,-29.705,,,2075173.0,1767084400.886875,1
0.0,-9.145,,,2074841.0,1767084400.921875,1
0.0,7.329999999999999,,,2074942.0,1767084400.956875,1
0.0,12.26,,,2075237.0,1767084400.991875,1
0.0,10.56,0.468798,34.99,,1767084401.026875,1
0.0,6.52,,,2075595.0,1767084401.061875,1
0.0,1.4466666666666663,,,2076092.0,1767084401.096875,1
0.0,0.13,,,2076648.0,1767084401.131875,1
0.0,2.21,,,2077219.0,1767084401.166875,1
0.0,5.414999999999999,,,2078082.0,1767084401.201875,1
0.0,9.166666666666666,,,2077857.0,1767084401.236875,1
0.0,10.025,0.470079,35.0,2076546.0,1767084401.271875,1
0.0,8.2,,,,1767084401.306875,1
0.0,6.67,,,2075092.0,1767084401.341875,1
0.0,5.54,,,2074371.0,1767084401.376875,1
0.0,3.52,,,2074041.0,1767084401.411875,1
0.0,3.1100000000000003,,,2074272.0,1767084401.446875,1
0.0,5.625,,,2075251.0,1767084401.481875,1
0.0,12.893333333333333,0.47264,35.0,2077042.0,1767084401.516875,1
0.0,24.305,,,2078598.0,1767084401.551875,1
0.0,34.855000000000004,,,2079528.0,1767084401.586875,1
0.0,43.225,,,2080897.0,1767084401.621875,1
0.0,47.373333333333335,,,,1767084401.656875,1
0.0,43.97,,,2082052.0,1767084401.691875,1
0.0,38.325,,,2083099.0,1767084401.726875,1
0.0,37.52,0.473921,35.0,2084475.0,1767084401.761875,1
0.0,45.1,,,2085728.0,1767084401.796875,1
0.0,59.63999999999999,,,2087084.0,1767084401.831875,1
0.0,72.515,,,2088854.0,1767084401.866875,1
0.0,86.065,,,2090543.0,1767084401.901875,1
0.0,104.86,,,,1767084401.936875,1
0.0,111.58333333333331,,,2091080.0,1767084401.971875,1
0.0,72.985,0.476483,35.0,2090595.0,1767084402.006875,1
0.0,13.29,,,2090053.0,1767084402.041875,1
0.0,-43.98,,,2089983.0,1767084402.076875,1
0.0,-89.91000000000001,,,2090335.0,1767084402.111875,1
0.0,-112.65,,,2091055.0,1767084402.146875,1
0.0,-119.58,,,2091494.0,1767084402.181875,1
0.0,-123.43,,,,1767084402.216875,1
0.0,-124.38666666666666,0.477764,34.99,2091937.0,1767084402.251875,1
0.0,-109.48,,,2092267.0,1767084402.286875,1
0.0,-82.355,,,2092489.0,1767084402.321875,1
0.0,-54.045,,,2092993.0,1767084402.356875,1
0.0,-29.296666666666667,,,2094470.0,1767084402.391875,1
0.0,-11.025,,,2095848.0,1767084402.426875,1
0.0,1.4899999999999998,,,2097655.0,1767084402.461875,1
0.0,10.42,,,,1767084402.496875,1
0.0,14.943333333333332,0.476483,34.99,2099544.0,1767084402.531875,1
0.0,13.44,,,2101338.0,1767084402.566875,1
0.0,8.98,,,2101710.0,1767084402.601875,1
0.0,4.355,,,2101558.0,1767084402.636875,1
0.0,1.36,,,2101473.0,1767084402.671875,1
0.0,-1.0133333333333334,,,2101491.0,1767084402.706875,1
0.0,-5.54,,,2102110.0,1767084402.741875,1
0.0,-11.65,0.479045,34.99,,1767084402.776875,1
0.0,-17.04,,,2102820.0,1767084402.811875,1
0.0,-20.766666666666666,,,2103969.0,1767084402.846875,1
0.0,-27.115,,,2104512.0,1767084402.881875,1
0.0,-38.295,,,2105094.0,1767084402.916875,1
0.0,-50.475,,,2106601.0,1767084402.951875,1
0.0,-54.73,,,2108436.0,1767084402.986875,1
0.0,-45.865,0.479045,34.99,,1767084403.021875,1
0.0,-36.125,,,2109611.0,1767084403.056875,1
0.0,-30.225,,,2110656.0,1767084403.091875,1
0.0,-28.016666666666666,,,2111624.0,1767084403.126875,1
0.0,-28.32,,,2112608.0,1767084403.161875,1
0.0,-30.005000000000003,,,2113436.0,1767084403.196875,1
0.0,-31.12,,,2114405.0,1767084403.231875,1
0.0,-27.23333333333333,0.477764,34.97,2114913.0,1767084403.266875,1
0.0,-19.245,,,2115307.0,1767084403.301875,1
0.0,-13.92,,,2116279.0,1767084403.336875,1
0.0,-10.765,,,,1767084403.371875,1
0.0,-8.08,,,2117575.0,1767084403.406875,1
0.0,-6.225,,,2118602.0,1767084403.441875,1
0.0,-6.125,,,2118953.0,1767084403.476875,1
0.0,-7.470000000000001,0.479045,34.97,2119290.0,1767084403.511875,1
0.0,-9.53,,,2120121.0,1767084403.546875,1
0.0,-9.216666666666669,,,2120981.0,1767084403.581875,1
0.0,-0.7249999999999999,,,2121428.0,1767084403.616875,1
0.0,12.855,,,,1767084403.651875,1
0.0,27.185,,,2122456.0,1767084403.686875,1
0.0,38.90333333333333,,,2123316.0,1767084403.721875,1
0.0,42.495000000000005,0.477764,34.97,2124036.0,1767084403.756875,1
0.0,40.045,,,2122840.0,1767084403.791875,1
0.0,35.629999999999995,,,2120088.0,1767084403.826875,1
0.0,31.356666666666666,,,2117464.0,1767084403.861875,1
0.0,29.325000000000003,,,2115588.0,1767084403.896875,1
0.0,27.81,,,,1767084403.931875,1
0.0,24.87,,,2113690.0,1767084403.966875,1
0.0,19.703333333333333,0.479045,34.97,2112763.0,1767084404.001875,1
0.0,14.305,,,2111875.0,1767084404.036875,1
0.0,9.22,,,2111140.0,1767084404.071875,1
0.0,2.19,,,2109845.0,1767084404.106875,1
0.0,-8.086666666666666,,,2108664.0,1767084404.141875,1
0.0,-11.505,,,2107825.0,1767084404.176875,1
0.0,-1.895,,,2106446.0,1767084404.211875,1
0.0,15.44,,,2104754.0,1767084404.246875,1
0.0,34.77,0.481606,34.99,2103552.0,1767084404.281875,1
0.0,47.01,,,,1767084404.316875,1
0.0,55.545,,,2103166.0,1767084404.351875,1
0.0,64.875,,,2103199.0,1767084404.386875,1
0.0,70.995,,,2103199.0,1767084404.421875,1
0.0,68.74,,,2103271.0,1767084404.456875,1
0.0,61.02,,,2103148.0,1767084404.491875,1
0.0,55.535,0.482887,34.99,2101912.0,1767084404.526875,1
0.0,49.965,,,2099597.0,1767084404.561875,1
0.0,42.59,,,2098389.0,1767084404.596875,1
0.0,48.015,,,,1767084404.631875,1
0.0,76.91499999999999,,,2097147.0,1767084404.666875,1
0.0,119.75,,,2096700.0,1767084404.701875,1
0.0,136.93333333333337,,,2097123.0,1767084404.736875,1
0.0,75.93,0.481606,34.99,2097552.0,1767084404.771875,1
0.0,-9.885,,,2097458.0,1767084404.806875,1
0.0,-79.24,,,2097814.0,1767084404.841875,1
0.0,-118.16666666666669,,,2098108.0,1767084404.876875,1
0.0,-124.895,,,,1767084404.911875,1
0.0,-117.805,,,2098706.0,1767084404.946875,1
0.0,-110.285,,,2098903.0,1767084404.981875,1
0.0,-107.52666666666666,0.481606,34.99,2099638.0,1767084405.016875,1
0.0,-100.855,,,2100249.0,1767084405.051875,1
0.0,-85.805,,,2100772.0,1767084405.086875,1
0.0,-69.65,,,2101500.0,1767084405.121875,1
0.0,-58.89333333333334,,,,1767084405.156875,1
0.0,-52.505,,,2102468.0,1767084405.191875,1
0.0,-44.86,,,2103220.0,1767084405.226875,1
0.0,-38.96,0.480326,34.99,2103695.0,1767084405.261875,1
0.0,-39.41,,,2103383.0,1767084405.296875,1
0.0,-42.47666666666667,,,2101594.0,1767084405.331875,1
0.0,-41.11,,,2100173.0,1767084405.366875,1
0.0,-41.11,,,2099118.0,1767084405.401875,1
0.0,-45.765,,,2098111.0,1767084405.436875,1
0.0,-52.04333333333333,,,2097511.0,1767084405.471875,1
0.0,-48.765,0.484168,34.99,2096841.0,1767084405.506875,1
0.0,-32.745000000000005,,,2096701.0,1767084405.541875,1
0.0,-6.815,,,,1767084405.576875,1
0.0,26.236666666666668,,,2095943.0,1767084405.611875,1
0.0,49.675,,,2095682.0,1767084405.646875,1
0.0,60.765,,,2095520.0,1767084405.681875,1
0.0,66.055,,,2095232.0,1767084405.716875,1
0.0,62.903333333333336,0.485449,34.99,2095205.0,1767084405.751875,1
0.0,54.375,,,2095386.0,1767084405.786875,1
0.0,48.900000000000006,,,2095419.0,1767084405.821875,1
0.0,45.115,,,,1767084405.856875,1
0.0,39.72,,,2095678.0,1767084405.891875,1
0.0,33.22,,,2096613.0,1767084405.926875,1
0.0,27.55,,,2097848.0,1767084405.961875,1
0.0,21.225,,,2099293.0,1767084405.996875,1
0.0,12.403333333333334,0.481606,34.99,2097791.0,1767084406.031875,1
0.0,2.825,,,2093922.0,1767084406.066875,1
0.0,-5.72,,,,1767084406.101875,1
0.0,-14.84,,,2087214.0,1767084406.136875,1
0.0,-24.065,,,2078714.0,1767084406.171875,1
0.0,-37.19,,,2072662.0,1767084406.206875,1
0.0,-53.120000000000005,,,2068786.0,1767084406.241875,1
0.0,-62.44,0.481606,34.99,2065702.0,1767084406.276875,1
0.0,-59.92,,,2061747.0,1767084406.311875,1
0.0,-39.580000000000005,,,2057834.0,1767084406.346875,1
0.0,-16.515,,,2056163.0,1767084406.381875,1
0.0,-4.140000000000001,,,,1767084406.416875,1
0.0,3.26,,,2058177.0,1767084406.451875,1
0.0,6.766666666666667,,,2061550.0,1767084406.486875,1
0.0,6.210000000000001,0.484168,34.99,2064322.0,1767084406.521875,1
0.0,5.855,,,2067540.0,1767084406.556875,1
0.0,7.42,,,2070350.0,1767084406.591875,1
0.0,10.78,,,2073436.0,1767084406.626875,1
0.0,13.57,,,,1767084406.661875,1
0.0,15.29,,,2076130.0,1767084406.696875,1
0.0,16.775,,,2077522.0,1767084406.731875,1
0.0,17.006666666666664,0.484168,34.99,2077601.0,1767084406.766875,1
0.0,16.14,,,2077150.0,1767084406.801875,1
0.0,16.310000000000002,,,2076315.0,1767084406.836875,1
0.0,16.475,,,2077516.0,1767084406.871875,1
0.0,14.14,,,2079669.0,1767084406.906875,1
0.0,9.305,,,,1767084406.941875,1
0.0,3.215,,,2081845.0,1767084406.976875,1
0.0,-3.4250000000000003,0.480326,34.99,2083320.0,1767084407.011875,1
0.0,-3.985,,,2084130.0,1767084407.046875,1
0.0,12.466666666666669,,,2084482.0,1767084407.081875,1
0.0,37.86,,,2084791.0,1767084407.116875,1
0.0,54.065,,,2085108.0,1767084407.151875,1
0.0,64.285,,,2085641.0,1767084407.186875,1
0.0,70.32333333333334,,,,1767084407.221875,1
0.0,69.41,0.484168,34.99,2086740.0,1767084407.256875,1
0.0,65.92500000000001,,,2088073.0,1767084407.291875,1
0.0,64.115,,,2089311.0,1767084407.326875,1
0.0,62.656666666666666,,,2090139.0,1767084407.361875,1
0.0,57.545,,,2090750.0,1767084407.396875,1
0.0,50.895,,,2089520.0,1767084407.431875,1
0.0,43.61,,,2088263.0,1767084407.466875,1
0.0,32.60333333333333,0.484168,34.99,,1767084407.501875,1
0.0,18.62,,,2088103.0,1767084407.536875,1
0.0,6.84,,,2088664.0,1767084407.571875,1
0.0,-3.755,,,2089680.0,1767084407.606875,1
0.0,-18.383333333333333,,,2090802.0,1767084407.641875,1
0.0,-38.055,,,2091432.0,1767084407.676875,1
0.0,-55.955,,,2092417.0,1767084407.711875,1
0.0,-70.125,,,2093664.0,1767084407.746875,1
0.0,-72.12333333333333,0.484168,34.99,,1767084407.781875,1
0.0,-55.235,,,2094697.0,1767084407.816875,1
0.0,-34.765,,,2095878.0,1767084407.851875,1
0.0,-18.19,,,2097168.0,1767084407.886875,1
0.0,-9.45,,,2098889.0,1767084407.921875,1
0.0,-8.616666666666667,,,2099981.0,1767084407.956875,1
0.0,-12.795,,,2101228.0,1767084407.991875,1
0.0,-15.995,0.481606,34.99,2100988.0,1767084408.026875,1
0.0,-17.99,,,,1767084408.061875,1
0.0,-19.80333333333333,,,2099068.0,1767084408.096875,1
0.0,-20.89,,,2097597.0,1767084408.131875,1
0.0,-21.525,,,2096470.0,1767084408.166875,1
0.0,-23.67,,,2095929.0,1767084408.201875,1
0.0,-29.026666666666667,,,2095947.0,1767084408.236875,1
0.0,-33.94,0.482887,35.0,2095941.0,1767084408.271875,1
0.0,-35.93,,,2095736.0,1767084408.306875,1
0.0,-37.92,,,2095239.0,1767084408.341875,1
0.0,-43.50666666666667,,,,1767084408.376875,1
0.0,-49.4,,,2094028.0,1767084408.411875,1
0.0,-46.68,,,2093148.0,1767084408.446875,1
0.0,-32.82,,,2093119.0,1767084408.481875,1
0.0,-6.219999999999999,0.482887,35.0,2092310.0,1767084408.516875,1
0.0,16.695,,,2090951.0,1767084408.551875,1
0.0,26.72,,,2088338.0,1767084408.586875,1
0.0,29.51,,,,1767084408.621875,1
0.0,25.203333333333333,,,2083244.0,1767084408.656875,1
0.0,19.91,,,2075412.0,1767084408.691875,1
0.0,19.395,,,2069908.0,1767084408.726875,1
0.0,20.44,0.482887,35.0,2064576.0,1767084408.761875,1
0.0,20.135,,,2057926.0,1767084408.796875,1
0.0,17.496666666666666,,,2053999.0,1767084408.831875,1
0.0,12.71,,,2053884.0,1767084408.866875,1
0.0,5.994999999999999,,,,1767084408.901875,1
0.0,-3.655,,,2054481.0,1767084408.936875,1
0.0,-19.56,,,2055007.0,1767084408.971875,1
0.0,-36.155,0.479045,35.0,2057120.0,1767084409.006875,1
0.0,-43.16,,,2059341.0,1767084409.041875,1
0.0,-38.345,,,2062210.0,1767084409.076875,1
0.0,-16.886666666666667,,,2065560.0,1767084409.111875,1
0.0,7.59,,,2069002.0,1767084409.146875,1
0.0,21.89,,,,1767084409.181875,1
0.0,31.17,,,2071616.0,1767084409.216875,1
0.0,36.42333333333333,0.479045,34.99,2074706.0,1767084409.251875,1
0.0,37.135000000000005,,,2077313.0,1767084409.286875,1
0.0,38.275,,,2077515.0,1767084409.321875,1
0.0,41.925,,,2076644.0,1767084409.356875,1
0.0,47.02333333333333,,,2076118.0,1767084409.391875,1
0.0,48.195,,,2075963.0,1767084409.426875,1
0.0,43.975,,,2076225.0,1767084409.461875,1
0.0,35.739999999999995,,,,1767084409.496875,1
0.0,20.75,0.481606,34.99,2077032.0,1767084409.531875,1
0.0,1.71,,,2077303.0,1767084409.566875,1
0.0,-14.52,,,2077759.0,1767084409.601875,1
0.0,-27.5,,,2078305.0,1767084409.636875,1
0.0,-31.805,,,2079524.0,1767084409.671875,1
0.0,-18.37,,,2080648.0,1767084409.706875,1
0.0,7.685,,,2082207.0,1767084409.741875,1
0.0,26.815,0.482887,34.99,,1767084409.776875,1
0.0,38.7,,,2083618.0,1767084409.811875,1
0.0,43.13333333333333,,,2085438.0,1767084409.846875,1
0.0,38.07,,,2086714.0,1767084409.881875,1
0.0,29.325000000000003,,,2086924.0,1767084409.916875,1
0.0,21.15,,,2085202.0,1767084409.951875,1
0.0,14.456666666666663,,,2084222.0,1767084409.986875,1
0.0,9.64,0.479045,34.99,2083791.0,1767084410.021875,1
0.0,5.970000000000001,,,,1767084410.056875,1
0.0,1.42,,,2084266.0,1767084410.091875,1
0.0,-6.853333333333334,,,2085108.0,1767084410.126875,1
0.0,-16.27,,,2085888.0,1767084410.161875,1
0.0,-23.645,,,2086687.0,1767084410.196875,1
0.0,-33.385,,,2087236.0,1767084410.231875,1
0.0,-51.52666666666666,0.484168,34.99,2087723.0,1767084410.266875,1
0.0,-66.655,,,2088879.0,1767084410.301875,1
0.0,-64.49000000000001,,,2089875.0,1767084410.336875,1
0.0,-48.17,,,2091261.0,1767084410.371875,1
0.0,-21.44,,,2092619.0,1767084410.406875,1
0.0,-1.54,,,,1767084410.441875,1
0.0,6.37,,,2092245.0,1767084410.476875,1
0.0,8.255,0.482887,34.99,2089825.0,1767084410.511875,1
0.0,5.6850000000000005,,,2087041.0,1767084410.546875,1
0.0,2.283333333333333,,,2084437.0,1767084410.581875,1
0.0,4.025,,,2082846.0,1767084410.616875,1
0.0,7.415000000000001,,,2082139.0,1767084410.651875,1
0.0,8.08,,,,1767084410.686875,1
0.0,5.03,,,2081526.0,1767084410.721875,1
0.0,1.675,0.484168,34.99,2080418.0,1767084410.756875,1
0.0,-1.66,,,2078563.0,1767084410.791875,1
0.0,-8.175,,,2076240.0,1767084410.826875,1
0.0,-22.12333333333333,,,2073578.0,1767084410.861875,1
0.0,-36.18000000000001,,,2070726.0,1767084410.896875,1
0.0,-37.375,,,2067171.0,1767084410.931875,1
0.0,-24.53,,,,1767084410.966875,1
0.0,0.7333333333333331,0.480326,34.99,2063689.0,1767084411.001875,1
0.0,19.285,,,2057479.0,1767084411.036875,1
0.0,25.745,,,2049571.0,1767084411.071875,1
0.0,26.425,,,2043310.0,1767084411.106875,1
0.0,19.376666666666665,,,2040719.0,1767084411.141875,1
0.0,10.915,,,2039995.0,1767084411.176875,1
0.0,9.125,,,2040480.0,1767084411.211875,1
0.0,9.815,,,,1767084411.246875,1
0.0,8.1,0.481606,35.0,2041375.0,1767084411.281875,1
0.0,4.050000000000001,,,2042727.0,1767084411.316875,1
0.0,-0.635,,,2043376.0,1767084411.351875,1
0.0,-8.895,,,2043758.0,1767084411.386875,1
0.0,-21.79,,,2044802.0,1767084411.421875,1
0.0,-40.07,,,2046555.0,1767084411.456875,1
0.0,-48.89,,,2049029.0,1767084411.491875,1
0.0,-39.295,0.484168,35.0,,1767084411.526875,1
0.0,-17.645,,,2051538.0,1767084411.561875,1
0.0,10.303333333333333,,,2053847.0,1767084411.596875,1
0.0,28.355,,,2055254.0,1767084411.631875,1
0.0,33.760000000000005,,,2054015.0,1767084411.666875,1
0.0,32.39,,,2051991.0,1767084411.701875,1
0.0,26.07,,,2050614.0,1767084411.736875,1
0.0,23.005,0.484168,35.0,2049641.0,1767084411.771875,1
0.0,23.655,,,,1767084411.806875,1
0.0,21.62,,,2049356.0,1767084411.841875,1
0.0,13.433333333333335,,,2049828.0,1767084411.876875,1
0.0,5.195,,,2049828.0,1767084411.911875,1
0.0,-1.24,,,2050400.0,1767084411.946875,1
0.0,-11.33,,,2050249.0,1767084411.981875,1
0.0,-29.336666666666662,0.480326,35.0,2050621.0,1767084412.016875,1
0.0,-44.175,,,2050897.0,1767084412.051875,1
0.0,-43.155,,,2051664.0,1767084412.086875,1
0.0,-28.075,,,,1767084412.121875,1
0.0,-1.623333333333333,,,2052432.0,1767084412.156875,1
0.0,19.33,,,2053651.0,1767084412.191875,1
0.0,29.145000000000003,,,2054894.0,1767084412.226875,1
0.0,32.515,0.480326,34.97,2056473.0,1767084412.261875,1
0.0,29.27,,,2057681.0,1767084412.296875,1
0.0,21.496666666666663,,,2056255.0,1767084412.331875,1
0.0,16.475,,,2053696.0,1767084412.366875,1
0.0,13.915,,,,1767084412.401875,1
0.0,9.87,,,2051596.0,1767084412.436875,1
0.0,3.1500000000000004,,,2049742.0,1767084412.471875,1
0.0,-4.015,0.480326,34.97,2048658.0,1767084412.506875,1
0.0,-11.745,,,2048441.0,1767084412.541875,1
0.0,-23.380000000000003,,,2048687.0,1767084412.576875,1
0.0,-43.69,,,2049118.0,1767084412.611875,1
0.0,-61.635,,,2048927.0,1767084412.646875,1
0.0,-61.58,,,2048958.0,1767084412.681875,1
0.0,-44.23,,,2049286.0,1767084412.716875,1
0.0,-10.53,0.481606,34.97,2049948.0,1767084412.751875,1
0.0,18.52,,,,1767084412.786875,1
0.0,32.46,,,2050982.0,1767084412.821875,1
0.0,38.53,,,2052037.0,1767084412.856875,1
0.0,37.88333333333333,,,2053018.0,1767084412.891875,1
0.0,34.5,,,2054109.0,1767084412.926875,1
0.0,33.015,,,2055368.0,1767084412.961875,1
0.0,32.599999999999994,,,2056564.0,1767084412.996875,1
0.0,30.896666666666672,0.479045,34.97,,1767084413.031875,1
0.0,25.415,,,2057249.0,1767084413.066875,1
0.0,17.185000000000002,,,2054862.0,1767084413.101875,1
0.0,6.885,,,2050746.0,1767084413.136875,1
0.0,-3.4800000000000004,,,2046916.0,1767084413.171875,1
0.0,-16.01,,,2043416.0,1767084413.206875,1
0.0,-31.49,,,2040802.0,1767084413.241875,1
0.0,-47.735,0.476483,34.99,2039256.0,1767084413.276875,1
0.0,-60.385,,,2038402.0,1767084413.311875,1
0.0,-52.653333333333336,,,2037356.0,1767084413.346875,1
0.0,-20.54,,,,1767084413.381875,1
0.0,8.504999999999999,,,2036850.0,1767084413.416875,1
0.0,29.93,,,2036541.0,1767084413.451875,1
0.0,46.866666666666674,,,2036797.0,1767084413.486875,1
0.0,55.13,0.480326,34.99,2037612.0,1767084413.521875,1
0.0,54.685,,,2039148.0,1767084413.556875,1
0.0,52.71,,,2040581.0,1767084413.591875,1
0.0,55.11666666666667,,,2042298.0,1767084413.626875,1
0.0,60.955,,,,1767084413.661875,1
0.0,64.22999999999999,,,2044168.0,1767084413.696875,1
0.0,65.545,,,2046218.0,1767084413.731875,1
0.0,67.15333333333332,0.480326,34.99,2048171.0,1767084413.766875,1
0.0,69.445,,,2049682.0,1767084413.801875,1
0.0,70.14,,,2048974.0,1767084413.836875,1
0.0,69.475,,,2046482.0,1767084413.871875,1
0.0,66.51666666666667,,,2044189.0,1767084413.906875,1
0.0,57.69499999999999,,,2042627.0,1767084413.941875,1
0.0,44.42,,,2041417.0,1767084413.976875,1
0.0,27.985,0.476483,34.99,2041200.0,1767084414.011875,1
0.0,11.465,,,,1767084414.046875,1
0.0,2.1633333333333336,,,2041170.0,1767084414.081875,1
0.0,14.64,,,2041465.0,1767084414.116875,1
0.0,34.0,,,2041357.0,1767084414.151875,1
0.0,49.25,,,2041521.0,1767084414.186875,1
0.0,63.46,,,2042257.0,1767084414.221875,1
0.0,66.045,0.479045,35.0,2043439.0,1767084414.256875,1
0.0,37.795,,,2044978.0,1767084414.291875,1
0.0,-18.215,,,,1767084414.326875,1
0.0,-90.57333333333332,,,2046316.0,1767084414.361875,1
0.0,-135.89999999999998,,,2047458.0,1767084414.396875,1
0.0,-148.83999999999995,,,2049090.0,1767084414.431875,1
0.0,-146.79,,,2050758.0,1767084414.466875,1
0.0,-130.4966666666667,0.480326,35.0,2052621.0,1767084414.501875,1
0.0,-111.655,,,2054697.0,1767084414.536875,1
0.0,-100.185,,,,1767084414.571875,1
0.0,-90.425,,,2056345.0,1767084414.606875,1
0.0,-78.38,,,2055657.0,1767084414.641875,1
0.0,-69.59,,,2053082.0,1767084414.676875,1
0.0,-67.75,,,2050808.0,1767084414.711875,1
0.0,-70.21000000000001,,,2049148.0,1767084414.746875,1
0.0,-77.36,0.482887,35.0,2047979.0,1767084414.781875,1
0.0,-80.495,,,2047640.0,1767084414.816875,1
0.0,-67.10499999999999,,,,1767084414.851875,1
0.0,-35.47,,,2048033.0,1767084414.886875,1
0.0,4.52,,,2048370.0,1767084414.921875,1
0.0,46.49666666666666,,,2048477.0,1767084414.956875,1
0.0,74.13,,,2048899.0,1767084414.991875,1
0.0,85.08,0.480326,35.0,2049208.0,1767084415.026875,1
0.0,86.655,,,2049556.0,1767084415.061875,1
0.0,79.81,,,2048113.0,1767084415.096875,1
0.0,70.795,,,2045992.0,1767084415.131875,1
0.0,64.03,,,,1767084415.166875,1
0.0,57.15,,,2044118.0,1767084415.201875,1
0.0,47.54,,,2042946.0,1767084415.236875,1
0.0,36.235,0.481606,34.97,2043391.0,1767084415.271875,1
0.0,24.695,,,2044476.0,1767084415.306875,1
0.0,11.145,,,2045379.0,1767084415.341875,1
0.0,-5.489999999999999,,,2047017.0,1767084415.376875,1
0.0,-20.715,,,,1767084415.411875,1
0.0,-32.865,,,2047806.0,1767084415.446875,1
0.0,-43.225,,,2045869.0,1767084415.481875,1
0.0,-49.44,0.481606,34.97,2042578.0,1767084415.516875,1
0.0,-53.365,,,2039466.0,1767084415.551875,1
0.0,-61.17,,,2039466.0,1767084415.586875,1
0.0,-70.58500000000001,,,2036395.0,1767084415.621875,1
0.0,-67.66000000000001,,,2033108.0,1767084415.656875,1
0.0,-40.905,,,2030948.0,1767084415.691875,1
0.0,-9.5,,,2028521.0,1767084415.726875,1
0.0,17.67,0.482887,34.97,,1767084415.761875,1
0.0,36.48,,,2027047.0,1767084415.796875,1
0.0,50.48,,,2025465.0,1767084415.831875,1
0.0,57.315,,,2024387.0,1767084415.866875,1
0.0,59.655,,,2023954.0,1767084415.901875,1
0.0,62.875,,,2024669.0,1767084415.936875,1
0.0,70.46666666666667,,,2026787.0,1767084415.971875,1
0.0,81.65,0.481606,34.97,2029180.0,1767084416.006875,1
0.0,92.055,,,,1767084416.041875,1
0.0,99.49,,,2031508.0,1767084416.076875,1
0.0,100.98,,,2033528.0,1767084416.111875,1
0.0,101.245,,,2035705.0,1767084416.146875,1
0.0,106.32,,,2038055.0,1767084416.181875,1
0.0,112.115,,,2040387.0,1767084416.216875,1
0.0,106.96666666666668,0.484168,34.99,2042335.0,1767084416.251875,1
0.0,86.985,,,2041299.0,1767084416.286875,1
0.0,67.935,,,2039249.0,1767084416.321875,1
0.0,49.510000000000005,,,2037990.0,1767084416.356875,1
0.0,20.65,,,,1767084416.391875,1
0.0,-11.085,,,2037419.0,1767084416.426875,1
0.0,-25.755000000000003,,,2037036.0,1767084416.461875,1
0.0,-20.825,,,2037657.0,1767084416.496875,1
0.0,3.333333333333333,0.48673,34.99,2038581.0,1767084416.531875,1
0.0,4.44,,,2039014.0,1767084416.566875,1
0.0,-34.345,,,2039590.0,1767084416.601875,1
0.0,-87.53,,,2040341.0,1767084416.636875,1
0.0,-125.89,,,,1767084416.671875,1
0.0,-138.09,,,2040993.0,1767084416.706875,1
0.0,-123.38,,,2041808.0,1767084416.741875,1
0.0,-99.96,0.48673,34.99,2043211.0,1767084416.776875,1
0.0,-77.34,,,2044735.0,1767084416.811875,1
0.0,-59.02333333333333,,,2046149.0,1767084416.846875,1
0.0,-44.895,,,2048070.0,1767084416.881875,1
0.0,-32.865,,,2049991.0,1767084416.916875,1
0.0,-24.020000000000003,,,,1767084416.951875,1
0.0,-20.563333333333333,,,2051899.0,1767084416.986875,1
0.0,-20.86,0.484168,34.99,2054130.0,1767084417.021875,1
0.0,-23.225,,,2055781.0,1767084417.056875,1
0.0,-28.235,,,2055231.0,1767084417.091875,1
0.0,-35.59,,,2053999.0,1767084417.126875,1
0.0,-41.845,,,2052904.0,1767084417.161875,1
0.0,-48.405,,,2052494.0,1767084417.196875,1
0.0,-58.875,,,,1767084417.231875,1
0.0,-70.03,0.481606,34.97,2052699.0,1767084417.266875,1
0.0,-63.05499999999999,,,2053365.0,1767084417.301875,1
0.0,-40.0,,,2053977.0,1767084417.336875,1
0.0,-13.8,,,2053897.0,1767084417.371875,1
0.0,7.353333333333333,,,2051008.0,1767084417.406875,1
0.0,16.28,,,2048676.0,1767084417.441875,1
0.0,18.16,,,2046011.0,1767084417.476875,1
0.0,18.095,0.48673,34.97,,1767084417.511875,1
0.0,17.225,,,2042161.0,1767084417.546875,1
0.0,17.036666666666665,,,2038545.0,1767084417.581875,1
0.0,20.03,,,2035024.0,1767084417.616875,1
0.0,24.515,,,2032131.0,1767084417.651875,1
0.0,27.525,,,2029974.0,1767084417.686875,1
0.0,24.69,,,2026691.0,1767084417.721875,1
0.0,16.395,0.488011,34.97,2024013.0,1767084417.756875,1
0.0,9.72,,,,1767084417.791875,1
0.0,5.0,,,2021597.0,1767084417.826875,1
0.0,-0.7966666666666667,,,2019351.0,1767084417.861875,1
0.0,-8.455,,,2015239.0,1767084417.896875,1
0.0,-14.81,,,2011602.0,1767084417.931875,1
0.0,-21.11,,,2010208.0,1767084417.966875,1
0.0,-33.15,0.485449,34.97,2012150.0,1767084418.001875,1
0.0,-51.005,,,2016624.0,1767084418.036875,1
0.0,-61.825,,,,1767084418.071875,1
0.0,-57.535,,,2021797.0,1767084418.106875,1
0.0,-28.266666666666666,,,2025635.0,1767084418.141875,1
0.0,6.385000000000001,,,2028481.0,1767084418.176875,1
0.0,24.96,,,2030643.0,1767084418.211875,1
0.0,35.11,,,2033264.0,1767084418.246875,1
0.0,40.9,0.482887,34.99,2035520.0,1767084418.281875,1
0.0,42.195,,,2037852.0,1767084418.316875,1
0.0,41.395,,,,1767084418.351875,1
0.0,41.24,,,2040347.0,1767084418.386875,1
0.0,42.665,,,2042502.0,1767084418.421875,1
0.0,45.120000000000005,,,2044538.0,1767084418.456875,1
0.0,45.515,,,2046456.0,1767084418.491875,1
0.0,42.870000000000005,0.48673,34.99,2048593.0,1767084418.526875,1
0.0,37.400000000000006,,,2050618.0,1767084418.561875,1
0.0,27.626666666666665,,,2051484.0,1767084418.596875,1
0.0,16.725,,,,1767084418.631875,1
0.0,7.97,,,2050520.0,1767084418.666875,1
0.0,0.0999999999999999,,,2049056.0,1767084418.701875,1
0.0,-8.403333333333334,,,2048303.0,1767084418.736875,1
0.0,-19.755000000000003,0.485449,34.99,2048187.0,1767084418.771875,1
0.0,-33.745000000000005,,,2048296.0,1767084418.806875,1
0.0,-46.94,,,2048964.0,1767084418.841875,1
0.0,-45.75666666666667,,,2049229.0,1767084418.876875,1
0.0,-21.44,,,,1767084418.911875,1
0.0,4.37,,,2049641.0,1767084418.946875,1
0.0,23.34,,,2050438.0,1767084418.981875,1
0.0,36.333333333333336,0.48673,34.99,2051625.0,1767084419.016875,1
0.0,42.615,,,2052771.0,1767084419.051875,1
0.0,40.315,,,2053830.0,1767084419.086875,1
0.0,31.16,,,2054787.0,1767084419.121875,1
0.0,16.576666666666668,,,2056109.0,1767084419.156875,1
0.0,3.52,,,,1767084419.191875,1
0.0,-6.78,,,2057327.0,1767084419.226875,1
0.0,-17.935000000000002,0.485449,34.99,2058347.0,1767084419.261875,1
0.0,-28.62,,,2059179.0,1767084419.296875,1
0.0,-39.14333333333334,,,2058850.0,1767084419.331875,1
0.0,-47.605,,,2057017.0,1767084419.366875,1
0.0,-54.475,,,2056256.0,1767084419.401875,1
0.0,-61.400000000000006,,,2055822.0,1767084419.436875,1
0.0,-67.51333333333334,,,2056171.0,1767084419.471875,1
0.0,-70.22999999999999,0.482887,34.99,,1767084419.506875,1
0.0,-72.445,,,2056707.0,1767084419.541875,1
0.0,-77.43,,,2057238.0,1767084419.576875,1
0.0,-81.94666666666666,,,2057544.0,1767084419.611875,1
0.0,-70.72,,,2058124.0,1767084419.646875,1
0.0,-44.645,,,2058815.0,1767084419.681875,1
0.0,-12.21,,,2059624.0,1767084419.716875,1
0.0,21.036666666666665,0.484168,34.99,2060444.0,1767084419.751875,1
0.0,39.395,,,,1767084419.786875,1
0.0,42.32,,,2060341.0,1767084419.821875,1
0.0,39.260000000000005,,,2060347.0,1767084419.856875,1
0.0,35.559999999999995,,,2060162.0,1767084419.891875,1
0.0,35.095,,,2058802.0,1767084419.926875,1
0.0,34.78,,,2053832.0,1767084419.961875,1
0.0,33.245,,,2047946.0,1767084419.996875,1
0.0,29.89,0.482887,34.99,2042908.0,1767084420.031875,1
0.0,22.57,,,,1767084420.066875,1
0.0,12.6,,,2037721.0,1767084420.101875,1
0.0,2.19,,,2030428.0,1767084420.136875,1
0.0,-6.125,,,2024307.0,1767084420.171875,1
0.0,-15.533333333333331,,,2020015.0,1767084420.206875,1
0.0,-28.97,,,2018035.0,1767084420.241875,1
0.0,-43.785,0.481606,34.97,2015448.0,1767084420.276875,1
0.0,-55.695,,,2011568.0,1767084420.311875,1
0.0,-51.07666666666666,,,,1767084420.346875,1
0.0,-24.655,,,2009435.0,1767084420.381875,1
0.0,1.6349999999999998,,,2011908.5,1767084420.416875,1
0.0,20.935,,,,1767084420.451875,1
0.0,31.350000000000005,,,2017339.0,1767084420.486875,1
0.0,31.55,0.479045,34.97,2019527.0,1767084420.521875,1
0.0,27.565,,,2019383.0,1767084420.556875,1
0.0,24.525,,,2018718.0,1767084420.591875,1
0.0,25.543333333333333,,,2019061.0,1767084420.626875,1
0.0,27.865,,,2019517.0,1767084420.661875,1
0.0,26.935,,,2020231.0,1767084420.696875,1
0.0,23.405,,,,1767084420.731875,1
0.0,16.883333333333333,0.480326,34.97,2020574.0,1767084420.766875,1
0.0,9.285,,,2020115.0,1767084420.801875,1
0.0,3.425,,,2020100.0,1767084420.836875,1
0.0,-3.0500000000000003,,,2020824.0,1767084420.871875,1
0.0,-15.26,,,2021658.0,1767084420.906875,1
0.0,-24.37,,,2022408.0,1767084420.941875,1
0.0,-16.925,,,,1767084420.976875,1
0.0,3.905,0.477764,34.97,2023125.0,1767084421.011875,1
0.0,27.1,,,2024388.0,1767084421.046875,1
0.0,46.27333333333333,,,2025264.0,1767084421.081875,1
0.0,54.325,,,2025078.0,1767084421.116875,1
0.0,51.475,,,2022957.0,1767084421.151875,1
0.0,41.67,,,2021144.0,1767084421.186875,1
0.0,29.8,,,2020149.0,1767084421.221875,1
0.0,25.38,0.479045,34.97,2019778.0,1767084421.256875,1
0.0,23.47,,,,1767084421.291875,1
0.0,17.884999999999998,,,2019687.0,1767084421.326875,1
0.0,6.919999999999999,,,2019852.0,1767084421.361875,1
0.0,-5.015,,,2019881.0,1767084421.396875,1
0.0,-15.94,,,2020212.0,1767084421.431875,1
0.0,-29.805,,,2020289.0,1767084421.466875,1
0.0,-51.27666666666667,0.476483,34.97,2020906.0,1767084421.501875,1
0.0,-67.565,,,2021610.0,1767084421.536875,1
0.0,-64.02,,,,1767084421.571875,1
0.0,-44.32,,,2022813.0,1767084421.606875,1
0.0,-14.06,,,2024173.0,1767084421.641875,1
0.0,6.19,,,2025455.0,1767084421.676875,1
0.0,12.21,,,2025450.0,1767084421.711875,1
0.0,10.27,,,2025450.0,1767084421.746875,1
0.0,0.1299999999999999,0.479045,34.97,2022922.0,1767084421.781875,1
0.0,-7.29,,,2020049.0,1767084421.816875,1
0.0,-6.805,,,2017778.0,1767084421.851875,1
0.0,-5.5,,,2016141.0,1767084421.886875,1
0.0,-7.154999999999999,,,,1767084421.921875,1
0.0,-11.476666666666668,,,2015293.0,1767084421.956875,1
0.0,-16.245,,,2015194.0,1767084421.991875,1
0.0,-22.145000000000003,0.477764,34.97,2015265.0,1767084422.026875,1
0.0,-31.725,,,2014895.0,1767084422.061875,1
0.0,-47.71,,,2014920.0,1767084422.096875,1
0.0,-57.405,,,2015593.0,1767084422.131875,1
0.0,-48.735,,,,1767084422.166875,1
0.0,-25.435,,,2016665.0,1767084422.201875,1
0.0,7.633333333333334,,,2017706.0,1767084422.236875,1
0.0,30.27,0.475202,34.97,2019056.0,1767084422.271875,1
0.0,38.27,,,2020080.0,1767084422.306875,1
0.0,39.345,,,2021097.0,1767084422.341875,1
0.0,33.98,,,2021270.0,1767084422.376875,1
0.0,27.815,,,2017887.0,1767084422.411875,1
0.0,25.005000000000003,,,,1767084422.446875,1
0.0,21.72,,,2013277.0,1767084422.481875,1
0.0,12.5,0.473921,34.97,2007775.0,1767084422.516875,1
0.0,-0.855,,,2002384.0,1767084422.551875,1
0.0,-11.91,,,1998810.0,1767084422.586875,1
0.0,-22.895000000000003,,,1997614.0,1767084422.621875,1
0.0,-39.09,,,1997297.0,1767084422.656875,1
0.0,-57.78,,,1997221.0,1767084422.691875,1
0.0,-69.36,,,1997767.0,1767084422.726875,1
0.0,-69.265,0.475202,34.97,1998056.0,1767084422.761875,1
0.0,-52.635000000000005,,,1998291.0,1767084422.796875,1
0.0,-17.236666666666668,,,,1767084422.831875,1
0.0,14.760000000000002,,,1998537.0,1767084422.866875,1
0.0,30.185,,,1999442.0,1767084422.901875,1
0.0,37.39,,,2000689.0,1767084422.936875,1
0.0,37.56,,,2001769.0,1767084422.971875,1
0.0,34.055,0.475202,34.97,2003288.0,1767084423.006875,1
0.0,32.655,,,2005257.0,1767084423.041875,1
0.0,32.785,,,2007261.0,1767084423.076875,1
0.0,31.8,,,2009124.0,1767084423.111875,1
0.0,27.41,,,,1767084423.146875,1
0.0,20.35,,,2009977.0,1767084423.181875,1
0.0,10.855,,,2008250.0,1767084423.216875,1
0.0,-1.3666666666666665,0.47264,34.97,2005891.0,1767084423.251875,1
0.0,-13.17,,,2003902.0,1767084423.286875,1
0.0,-25.14,,,2002227.0,1767084423.321875,1
0.0,-41.09,,,2001411.0,1767084423.356875,1
0.0,-57.97,,,2001273.0,1767084423.391875,1
0.0,-55.205,,,2001346.0,1767084423.426875,1
0.0,-33.875,,,2000925.0,1767084423.461875,1
0.0,-7.05,,,,1767084423.496875,1
0.0,19.526666666666667,0.47136,34.97,2000767.0,1767084423.531875,1
0.0,36.475,,,2000602.0,1767084423.566875,1
0.0,42.48,,,2000200.0,1767084423.601875,1
0.0,42.620000000000005,,,2000728.0,1767084423.636875,1
0.0,40.475,,,2000980.0,1767084423.671875,1
0.0,40.36000000000001,,,2001688.0,1767084423.706875,1
0.0,43.095,,,2002573.0,1767084423.741875,1
0.0,44.51,0.473921,34.97,2003232.0,1767084423.776875,1
0.0,42.82,,,2004220.0,1767084423.811875,1
0.0,35.82,,,,1767084423.846875,1
0.0,26.02,,,2005357.0,1767084423.881875,1
0.0,17.325,,,2006562.0,1767084423.916875,1
0.0,7.84,,,2007886.0,1767084423.951875,1
0.0,-4.916666666666667,,,2007890.0,1767084423.986875,1
0.0,-16.884999999999998,0.473921,34.97,2005694.0,1767084424.021875,1
0.0,-25.335,,,2002959.0,1767084424.056875,1
0.0,-34.785,,,2001226.0,1767084424.091875,1
0.0,-51.94333333333333,,,1999341.0,1767084424.126875,1
0.0,-70.11,,,1998465.0,1767084424.161875,1
0.0,-72.97999999999999,,,,1767084424.196875,1
0.0,-57.96,,,1998100.0,1767084424.231875,1
0.0,-23.606666666666666,0.470079,34.99,1997984.0,1767084424.266875,1
0.0,8.615,,,1997936.0,1767084424.301875,1
0.0,27.655,,,1997978.0,1767084424.336875,1
0.0,41.58,,,1998350.0,1767084424.371875,1
0.0,49.39333333333334,,,1998758.0,1767084424.406875,1
0.0,49.415,,,1999753.0,1767084424.441875,1
0.0,49.415,,,2000037.0,1767084424.476875,1
0.0,50.885000000000005,0.468798,34.99,,1767084424.511875,1
0.0,50.97,,,1996582.0,1767084424.546875,1
0.0,48.86666666666667,,,1990888.0,1767084424.581875,1
0.0,46.03,,,1986646.0,1767084424.616875,1
0.0,40.81,,,1984862.0,1767084424.651875,1
0.0,32.585,,,1984481.0,1767084424.686875,1
0.0,22.526666666666667,,,1985031.0,1767084424.721875,1
0.0,13.745,0.470079,34.99,1987985.0,1767084424.756875,1
0.0,5.29,,,1992748.0,1767084424.791875,1
0.0,-4.71,,,1993431.0,1767084424.826875,1
0.0,-16.150000000000002,,,,1767084424.861875,1
0.0,-25.7,,,1991503.0,1767084424.896875,1
0.0,-34.895,,,1987182.0,1767084424.931875,1
0.0,-47.84,,,1982106.0,1767084424.966875,1
0.0,-63.57333333333333,0.464955,34.99,1977918.0,1767084425.001875,1
0.0,-64.25999999999999,,,1977287.0,1767084425.036875,1
0.0,-46.185,,,1975350.0,1767084425.071875,1
0.0,-19.355,,,1974276.0,1767084425.106875,1
0.0,10.273333333333332,,,1973165.0,1767084425.141875,1
0.0,31.195,,,1973235.0,1767084425.176875,1
0.0,42.305,,,,1767084425.211875,1
0.0,47.985,,,1974223.0,1767084425.246875,1
0.0,49.10666666666666,0.464955,34.97,1975925.0,1767084425.281875,1
0.0,50.475,,,1979501.0,1767084425.316875,1
0.0,54.085,,,1983221.0,1767084425.351875,1
0.0,58.27,,,1985930.0,1767084425.386875,1
0.0,61.125,,,1987827.0,1767084425.421875,1
0.0,61.27,,,1990349.0,1767084425.456875,1
0.0,59.0,,,1992774.0,1767084425.491875,1
0.0,58.18,0.462393,34.97,1995527.0,1767084425.526875,1
0.0,59.38,,,,1767084425.561875,1
0.0,56.953333333333326,,,1998203.0,1767084425.596875,1
0.0,44.11,,,1999809.0,1767084425.631875,1
0.0,29.450000000000003,,,2000031.0,1767084425.666875,1
0.0,15.845,,,2000547.0,1767084425.701875,1
0.0,-4.3133333333333335,,,2002230.0,1767084425.736875,1
0.0,-30.8,0.470079,34.97,2003637.0,1767084425.771875,1
0.0,-51.795,,,2005704.0,1767084425.806875,1
0.0,-68.375,,,2008282.0,1767084425.841875,1
0.0,-80.11666666666666,,,,1767084425.876875,1
0.0,-78.97,,,2010469.0,1767084425.911875,1
0.0,-68.19,,,2012054.0,1767084425.946875,1
0.0,-54.36,,,2013487.0,1767084425.981875,1
0.0,-37.11333333333334,0.47136,34.97,2014939.0,1767084426.016875,1
0.0,-19.675,,,2016792.0,1767084426.051875,1
0.0,-8.299999999999999,,,2018709.0,1767084426.086875,1
0.0,-1.81,,,2020823.0,1767084426.121875,1
0.0,2.603333333333333,,,2022592.0,1767084426.156875,1
0.0,6.135,,,2024053.0,1767084426.191875,1
0.0,6.494999999999999,,,,1767084426.226875,1
0.0,4.68,0.468798,34.97,2025691.0,1767084426.261875,1
0.0,2.865,,,2025691.0,1767084426.296875,1
0.0,0.9966666666666666,,,2027562.0,1767084426.331875,1
0.0,-2.09,,,2029590.0,1767084426.366875,1
0.0,-5.109999999999999,,,2031534.0,1767084426.401875,1
0.0,-7.439999999999999,,,2032932.0,1767084426.436875,1
0.0,-10.293333333333331,,,2032721.0,1767084426.471875,1
0.0,-16.3,0.467517,34.97,2031919.0,1767084426.506875,1
0.0,-24.14,,,,1767084426.541875,1
0.0,-32.765,,,2031080.0,1767084426.576875,1
0.0,-46.07333333333333,,,2030832.0,1767084426.611875,1
0.0,-65.03999999999999,,,2030728.0,1767084426.646875,1
0.0,-80.31,,,2030993.0,1767084426.681875,1
0.0,-85.82,,,2031401.0,1767084426.716875,1
0.0,-70.22,0.47136,34.97,2031396.0,1767084426.751875,1
0.0,-38.91,,,2031796.0,1767084426.786875,1
0.0,-12.115,,,,1767084426.821875,1
0.0,10.515,,,2032644.0,1767084426.856875,1
0.0,29.55666666666667,,,2032900.0,1767084426.891875,1
0.0,38.615,,,2033658.0,1767084426.926875,1
0.0,41.435,,,2034593.0,1767084426.961875,1
0.0,44.245000000000005,,,2036505.0,1767084426.996875,1
0.0,47.74333333333334,0.468798,34.97,2037954.0,1767084427.031875,1
0.0,49.455,,,2039669.0,1767084427.066875,1
0.0,49.17,,,,1767084427.101875,1
0.0,47.065,,,2041363.0,1767084427.136875,1
0.0,42.48,,,2042296.0,1767084427.171875,1
0.0,34.42,,,2040829.0,1767084427.206875,1
0.0,26.645,,,2037207.0,1767084427.241875,1
0.0,20.69,0.468798,34.97,2033385.0,1767084427.276875,1
0.0,13.13,,,2031366.0,1767084427.311875,1
0.0,1.0433333333333332,,,2030978.0,1767084427.346875,1
0.0,-10.195,,,,1767084427.381875,1
0.0,-17.6,,,2031279.0,1767084427.416875,1
0.0,-27.345,,,2032021.0,1767084427.451875,1
0.0,-45.02,,,2032434.0,1767084427.486875,1
0.0,-57.120000000000005,0.466236,34.97,2032375.0,1767084427.521875,1
0.0,-50.72,,,2032148.0,1767084427.556875,1
0.0,-31.095,,,2032422.0,1767084427.591875,1
0.0,-3.766666666666667,,,2032791.0,1767084427.626875,1
0.0,15.535,,,,1767084427.661875,1
0.0,24.42,,,2033635.0,1767084427.696875,1
0.0,28.185,,,2035082.0,1767084427.731875,1
0.0,26.816666666666663,0.470079,34.97,2036018.0,1767084427.766875,1
0.0,24.875,,,2037650.0,1767084427.801875,1
0.0,25.275,,,2038894.0,1767084427.836875,1
0.0,25.61,,,2039685.0,1767084427.871875,1
0.0,24.94,,,2039354.0,1767084427.906875,1
0.0,24.455,,,,1767084427.941875,1
0.0,22.84,,,2038685.0,1767084427.976875,1
0.0,17.82,0.468798,34.97,2038219.0,1767084428.011875,1
0.0,9.605,,,2038311.0,1767084428.046875,1
0.0,-0.9633333333333332,,,2038903.0,1767084428.081875,1
0.0,-8.81,,,2039675.0,1767084428.116875,1
0.0,-14.69,,,2040454.0,1767084428.151875,1
0.0,-23.36,,,2041014.0,1767084428.186875,1
0.0,-37.52,,,,1767084428.221875,1
0.0,-46.57,0.468798,34.95,2041596.0,1767084428.256875,1
0.0,-41.36,,,2042598.0,1767084428.291875,1
0.0,-24.79,,,2043926.0,1767084428.326875,1
0.0,0.5699999999999997,,,2045379.0,1767084428.361875,1
0.0,19.685,,,2046748.0,1767084428.396875,1
0.0,27.055,,,2048143.0,1767084428.431875,1
0.0,27.545,,,2049360.0,1767084428.466875,1
0.0,22.106666666666666,0.464955,34.95,,1767084428.501875,1
0.0,17.835,,,2050782.0,1767084428.536875,1
0.0,17.555,,,2051695.0,1767084428.571875,1
0.0,17.585,,,2050809.0,1767084428.606875,1
0.0,15.98,,,2049453.0,1767084428.641875,1
0.0,12.77,,,2048595.0,1767084428.676875,1
0.0,7.74,,,2047967.0,1767084428.711875,1
0.0,0.1200000000000001,,,2047608.0,1767084428.746875,1
0.0,-9.89,0.464955,34.95,,1767084428.781875,1
0.0,-17.42,,,2047662.0,1767084428.816875,1
0.0,-23.485,,,2048147.0,1767084428.851875,1
0.0,-33.375,,,2048065.0,1767084428.886875,1
0.0,-45.78,,,2048240.0,1767084428.921875,1
0.0,-51.52666666666667,,,2048694.0,1767084428.956875,1
0.0,-37.545,,,2049313.0,1767084428.991875,1
0.0,-15.915,0.464955,34.95,2050010.0,1767084429.026875,1
0.0,4.180000000000001,,,,1767084429.061875,1
0.0,20.25,,,2051061.0,1767084429.096875,1
0.0,27.78,,,2051931.0,1767084429.131875,1
0.0,28.065,,,2052468.0,1767084429.166875,1
0.0,25.87,,,2053167.0,1767084429.201875,1
0.0,25.133333333333336,,,2052322.0,1767084429.236875,1
0.0,27.925,0.464955,34.95,2049311.0,1767084429.271875,1
0.0,30.475,,,2045099.0,1767084429.306875,1
0.0,30.815,,,,1767084429.341875,1
0.0,26.343333333333334,,,2039636.0,1767084429.376875,1
0.0,16.67,,,2034222.0,1767084429.411875,1
0.0,6.18,,,2029312.0,1767084429.446875,1
0.0,-3.73,,,2025245.0,1767084429.481875,1
0.0,-13.356666666666667,0.461113,34.95,2022882.0,1767084429.516875,1
0.0,-24.845,,,2023806.0,1767084429.551875,1
0.0,-38.88,,,2029636.0,1767084429.586875,1
0.0,-51.68,,,,1767084429.621875,1
0.0,-50.806666666666665,,,2029966.0,1767084429.656875,1
0.0,-31.745,,,2029466.0,1767084429.691875,1
0.0,-12.975,,,2030154.0,1767084429.726875,1
0.0,1.4300000000000002,0.459832,34.95,2031392.0,1767084429.761875,1
0.0,11.29,,,2032884.0,1767084429.796875,1
0.0,17.706666666666667,,,2034253.0,1767084429.831875,1
0.0,18.13,,,2038317.0,1767084429.866875,1
0.0,16.845,,,,1767084429.901875,1
0.0,17.54,,,2042220.0,1767084429.936875,1
0.0,20.016666666666666,,,2044723.0,1767084429.971875,1
0.0,20.51,0.461113,34.95,2047676.0,1767084430.006875,1
0.0,19.525,,,2049159.0,1767084430.041875,1
0.0,18.28,,,2049450.0,1767084430.076875,1
0.0,14.123333333333331,,,2049275.0,1767084430.111875,1
0.0,6.565,,,2049222.0,1767084430.146875,1
0.0,1.2950000000000002,,,,1767084430.181875,1
0.0,-0.8049999999999999,,,2049220.0,1767084430.216875,1
0.0,-2.19,0.466236,34.97,2049395.0,1767084430.251875,1
0.0,-8.885,,,2050565.0,1767084430.286875,1
0.0,-20.265,,,2051858.0,1767084430.321875,1
0.0,-30.185,,,2053275.0,1767084430.356875,1
0.0,-25.48333333333333,,,2054151.0,1767084430.391875,1
0.0,-3.94,,,2055535.0,1767084430.426875,1
0.0,15.45,,,,1767084430.461875,1
0.0,30.445,,,2057028.0,1767084430.496875,1
0.0,41.6,0.461113,34.97,2058846.0,1767084430.531875,1
0.0,42.96,,,2060538.0,1767084430.566875,1
0.0,37.315,,,2062234.0,1767084430.601875,1
0.0,31.08,,,2064188.0,1767084430.636875,1
0.0,27.565,,,2065907.0,1767084430.671875,1
0.0,26.19,,,2067715.0,1767084430.706875,1
0.0,24.885,,,,1767084430.741875,1
0.0,22.055,0.459832,34.97,2069587.0,1767084430.776875,1
0.0,16.96,,,2070715.0,1767084430.811875,1
0.0,8.086666666666668,,,2069992.0,1767084430.846875,1
0.0,-2.435,,,2069259.0,1767084430.881875,1
0.0,-11.325,,,2068733.0,1767084430.916875,1
0.0,-19.1,,,2068717.0,1767084430.951875,1
0.0,-27.566666666666663,,,2069239.0,1767084430.986875,1
0.0,-38.345,0.461113,34.97,,1767084431.021875,1
0.0,-50.18,,,2070100.0,1767084431.056875,1
0.0,-62.31,,,2070907.0,1767084431.091875,1
0.0,-68.16000000000001,,,2071901.0,1767084431.126875,1
0.0,-56.23,,,2072910.0,1767084431.161875,1
0.0,-35.73,,,2074315.0,1767084431.196875,1
0.0,-15.515,,,2075599.0,1767084431.231875,1
0.0,1.5733333333333333,0.462393,34.95,2076975.0,1767084431.266875,1
0.0,10.885000000000002,,,,1767084431.301875,1
0.0,13.115,,,2078574.0,1767084431.336875,1
0.0,12.79,,,2080297.0,1767084431.371875,1
0.0,13.52,,,2081458.0,1767084431.406875,1
0.0,16.045,,,2082908.0,1767084431.441875,1
0.0,17.12,,,2084579.0,1767084431.476875,1
0.0,16.5,0.459832,34.95,2086251.0,1767084431.511875,1
0.0,14.34,,,2087297.0,1767084431.546875,1
0.0,9.04,,,,1767084431.581875,1
0.0,1.18,,,2087030.0,1767084431.616875,1
0.0,-5.88,,,2086053.0,1767084431.651875,1
0.0,-12.005,,,2085827.0,1767084431.686875,1
0.0,-18.18,,,2085731.0,1767084431.721875,1
0.0,-24.685,0.458551,34.95,2085984.0,1767084431.756875,1
0.0,-31.85,,,2086573.0,1767084431.791875,1
0.0,-41.81,,,2086421.0,1767084431.826875,1
0.0,-53.39333333333334,,,,1767084431.861875,1
0.0,-51.995000000000005,,,2082755.0,1767084431.896875,1
0.0,-36.205,,,2077601.0,1767084431.931875,1
0.0,-14.84,,,2074425.0,1767084431.966875,1
0.0,7.039999999999999,0.450866,34.95,2071787.0,1767084432.001875,1
0.0,20.295,,,2066676.0,1767084432.036875,1
0.0,24.53,,,2062033.0,1767084432.071875,1
0.0,24.095,,,2058332.0,1767084432.106875,1
0.0,21.366666666666664,,,,1767084432.141875,1
0.0,21.365,,,2054565.0,1767084432.176875,1
0.0,23.25,,,2053854.0,1767084432.211875,1
0.0,24.455,,,2056800.0,1767084432.246875,1
0.0,23.71666666666667,0.455989,34.97,2060746.0,1767084432.281875,1
0.0,20.665,,,2063422.0,1767084432.316875,1
0.0,16.765,,,2064593.0,1767084432.351875,1
0.0,12.6,,,2065651.0,1767084432.386875,1
0.0,8.51,,,,1767084432.421875,1
0.0,3.856666666666666,,,2066041.0,1767084432.456875,1
0.0,0.5650000000000001,,,2066554.0,1767084432.491875,1
0.0,-1.855,0.454708,34.97,2067464.0,1767084432.526875,1
0.0,-5.78,,,2067464.0,1767084432.561875,1
0.0,-11.85,,,2068586.0,1767084432.596875,1
0.0,-13.16,,,2069536.0,1767084432.631875,1
0.0,-5.05,,,2070888.0,1767084432.666875,1
0.0,9.495,,,,1767084432.701875,1
0.0,24.56,,,2071856.0,1767084432.736875,1
0.0,31.275,0.454708,34.97,2073230.0,1767084432.771875,1
0.0,35.095,,,2074304.0,1767084432.806875,1
0.0,40.025,,,2075761.0,1767084432.841875,1
0.0,43.39333333333334,,,2077434.0,1767084432.876875,1
0.0,40.32,,,2079474.0,1767084432.911875,1
0.0,31.415,,,2081761.0,1767084432.946875,1
0.0,17.73,,,,1767084432.981875,1
0.0,0.7966666666666669,0.454708,34.97,2083801.0,1767084433.016875,1
0.0,-9.795,,,2085385.0,1767084433.051875,1
0.0,-14.82,,,2086007.0,1767084433.086875,1
0.0,-20.255,,,2085619.0,1767084433.121875,1
0.0,-26.32333333333333,,,2085975.0,1767084433.156875,1
0.0,-29.55,,,2086484.0,1767084433.191875,1
0.0,-31.795,,,2087373.0,1767084433.226875,1
0.0,-35.584999999999994,0.458551,34.97,,1767084433.261875,1
0.0,-41.27,,,2088343.0,1767084433.296875,1
0.0,-51.656666666666666,,,2089356.0,1767084433.331875,1
0.0,-62.88,,,2090079.0,1767084433.366875,1
0.0,-65.47,,,2091381.0,1767084433.401875,1
0.0,-56.31,,,2092410.0,1767084433.436875,1
0.0,-30.98333333333333,,,2093732.0,1767084433.471875,1
0.0,-4.81,0.458551,34.97,2094943.0,1767084433.506875,1
0.0,8.635,,,,1767084433.541875,1
0.0,14.295,,,2096216.0,1767084433.576875,1
0.0,12.923333333333334,,,2097738.0,1767084433.611875,1
0.0,7.53,,,2099080.0,1767084433.646875,1
0.0,3.24,,,2100019.0,1767084433.681875,1
0.0,0.945,,,2099472.0,1767084433.716875,1
0.0,3.0933333333333337,0.455989,34.97,2098650.0,1767084433.751875,1
0.0,8.825,,,2098267.0,1767084433.786875,1
0.0,11.885,,,,1767084433.821875,1
0.0,10.995,,,2098502.0,1767084433.856875,1
0.0,4.989999999999999,,,2098808.0,1767084433.891875,1
0.0,-3.245,,,2099400.0,1767084433.926875,1
0.0,-9.18,,,2100078.0,1767084433.961875,1
0.0,-14.635,,,2100440.0,1767084433.996875,1
0.0,-25.37,0.455989,34.97,2100915.0,1767084434.031875,1
0.0,-38.045,,,2101883.0,1767084434.066875,1
0.0,-39.66,,,,1767084434.101875,1
0.0,-28.325,,,2102762.0,1767084434.136875,1
0.0,-9.54,,,2103631.0,1767084434.171875,1
0.0,9.89,,,2104840.0,1767084434.206875,1
0.0,20.115,,,2106213.0,1767084434.241875,1
0.0,22.86,0.45727,34.95,2107742.0,1767084434.276875,1
0.0,21.685,,,2108568.0,1767084434.311875,1
0.0,16.783333333333335,,,2107490.0,1767084434.346875,1
0.0,13.535,,,,1767084434.381875,1
0.0,12.825,,,2105939.0,1767084434.416875,1
0.0,11.19,,,2104392.0,1767084434.451875,1
0.0,6.553333333333334,,,2104181.0,1767084434.486875,1
0.0,0.15,0.450866,34.95,2104498.0,1767084434.521875,1
0.0,-5.59,,,2105287.0,1767084434.556875,1
0.0,-11.255,,,2106438.0,1767084434.591875,1
0.0,-19.433333333333334,,,2107057.0,1767084434.626875,1
0.0,-30.4,,,2107869.0,1767084434.661875,1
0.0,-39.03,,,,1767084434.696875,1
0.0,-40.98,,,2108796.0,1767084434.731875,1
0.0,-26.430000000000003,0.452147,34.95,2109835.0,1767084434.766875,1
0.0,0.1099999999999998,,,2111099.0,1767084434.801875,1
0.0,21.285,,,2112776.0,1767084434.836875,1
0.0,37.025000000000006,,,2114392.0,1767084434.871875,1
0.0,46.91,,,2116413.0,1767084434.906875,1
0.0,49.465,,,2118025.0,1767084434.941875,1
0.0,50.905,,,2119684.0,1767084434.976875,1
0.0,54.59,0.450866,34.95,,1767084435.011875,1
0.0,59.155,,,2119491.0,1767084435.046875,1
0.0,64.53,,,2118916.0,1767084435.081875,1
0.0,71.305,,,2118664.0,1767084435.116875,1
0.0,77.52000000000001,,,2117922.0,1767084435.151875,1
0.0,79.86,,,2117747.0,1767084435.186875,1
0.0,71.19666666666667,,,2118300.0,1767084435.221875,1
0.0,57.15,0.452147,34.93,2118631.0,1767084435.256875,1
0.0,48.285,,,,1767084435.291875,1
0.0,37.425,,,2119272.0,1767084435.326875,1
0.0,20.88,,,2119747.0,1767084435.361875,1
0.0,19.405,,,2120472.0,1767084435.396875,1
0.0,35.44,,,2121301.0,1767084435.431875,1
0.0,51.01,,,2122350.0,1767084435.466875,1
0.0,37.330000000000005,0.454708,34.93,2123760.0,1767084435.501875,1
0.0,-20.74,,,2124773.0,1767084435.536875,1
0.0,-82.125,,,,1767084435.571875,1
0.0,-129.845,,,2125965.0,1767084435.606875,1
0.0,-157.0633333333333,,,2127408.0,1767084435.641875,1
0.0,-156.935,,,2128555.0,1767084435.676875,1
0.0,-141.305,,,2129397.0,1767084435.711875,1
0.0,-120.41,,,2129186.0,1767084435.746875,1
0.0,-96.53000000000002,0.458551,34.93,2128252.0,1767084435.781875,1
0.0,-77.08500000000001,,,2127449.0,1767084435.816875,1
0.0,-64.625,,,2126879.0,1767084435.851875,1
0.0,-54.31,,,,1767084435.886875,1
0.0,-45.010000000000005,,,2126486.0,1767084435.921875,1
0.0,-36.00333333333333,,,2126444.0,1767084435.956875,1
0.0,-34.400000000000006,,,2126472.0,1767084435.991875,1
0.0,-38.365,0.454708,34.93,2126500.0,1767084436.026875,1
0.0,-37.78,,,2126914.0,1767084436.061875,1
0.0,-18.50333333333333,,,2127237.0,1767084436.096875,1
0.0,12.245,,,2127659.0,1767084436.131875,1
0.0,32.955,,,2128186.0,1767084436.166875,1
0.0,46.235,,,2128908.0,1767084436.201875,1
0.0,55.01333333333333,,,,1767084436.236875,1
0.0,56.28,0.453427,34.97,2129810.0,1767084436.271875,1
0.0,52.120000000000005,,,2130919.0,1767084436.306875,1
0.0,47.71,,,2131554.0,1767084436.341875,1
0.0,45.31,,,2132628.0,1767084436.376875,1
0.0,44.105,,,2133089.0,1767084436.411875,1
0.0,43.14,,,2134207.0,1767084436.446875,1
0.0,41.245000000000005,,,,1767084436.481875,1
0.0,33.39666666666667,0.453427,34.97,2135269.0,1767084436.516875,1
0.0,20.425,,,2136360.0,1767084436.551875,1
0.0,10.64,,,2137039.0,1767084436.586875,1
0.0,3.19,,,2136634.0,1767084436.621875,1
0.0,-7.123333333333332,,,2135953.0,1767084436.656875,1
0.0,-22.83,,,2135175.0,1767084436.691875,1
0.0,-38.76,,,2134638.0,1767084436.726875,1
0.0,-51.5,0.449585,34.97,2134426.0,1767084436.761875,1
0.0,-52.61,,,,1767084436.796875,1
0.0,-32.54,,,2134474.0,1767084436.831875,1
0.0,-3.225,,,2134773.0,1767084436.866875,1
0.0,15.605,,,2134934.0,1767084436.901875,1
0.0,28.235,,,2135083.0,1767084436.936875,1
0.0,37.42,,,2135008.0,1767084436.971875,1
0.0,39.89,0.452147,34.97,2135815.0,1767084437.006875,1
0.0,38.345,,,2137065.0,1767084437.041875,1
0.0,38.215,,,,1767084437.076875,1
0.0,43.81999999999999,,,2138486.0,1767084437.111875,1
0.0,54.055,,,2140130.0,1767084437.146875,1
0.0,63.18,,,2141411.0,1767084437.181875,1
0.0,69.855,,,2142478.0,1767084437.216875,1
0.0,72.29,0.453427,34.95,2143629.0,1767084437.251875,1
0.0,71.47,,,2144812.0,1767084437.286875,1
0.0,69.735,,,2146161.0,1767084437.321875,1
0.0,65.53999999999999,,,,1767084437.356875,1
0.0,56.35,,,2146993.0,1767084437.391875,1
0.0,46.52,,,2146908.0,1767084437.426875,1
0.0,40.705,,,2146120.0,1767084437.461875,1
0.0,37.135000000000005,,,2145414.0,1767084437.496875,1
0.0,32.943333333333335,0.455989,34.95,2145049.0,1767084437.531875,1
0.0,20.675,,,2144847.0,1767084437.566875,1
0.0,-7.375,,,2145303.0,1767084437.601875,1
0.0,-55.965,,,2145465.0,1767084437.636875,1
0.0,-112.185,,,,1767084437.671875,1
0.0,-158.72333333333333,,,2145551.0,1767084437.706875,1
0.0,-166.24,,,2145392.0,1767084437.741875,1
0.0,-147.305,0.459832,34.95,2145273.0,1767084437.776875,1
0.0,-117.17,,,2145613.0,1767084437.811875,1
0.0,-78.39666666666666,,,2146213.0,1767084437.846875,1
0.0,-48.760000000000005,,,2146979.0,1767084437.881875,1
0.0,-32.39,,,2148411.0,1767084437.916875,1
0.0,-18.905,,,,1767084437.951875,1
0.0,-4.196666666666666,,,2150668.0,1767084437.986875,1
0.0,8.715,0.461113,34.95,2152795.0,1767084438.021875,1
0.0,16.715,,,2154616.0,1767084438.056875,1
0.0,20.275,,,2155515.0,1767084438.091875,1
0.0,18.31,,,2155818.0,1767084438.126875,1
0.0,14.165,,,2154915.0,1767084438.161875,1
0.0,10.015,,,2154021.0,1767084438.196875,1
0.0,4.425,,,,1767084438.231875,1
0.0,-1.42,0.459832,34.93,2153587.0,1767084438.266875,1
0.0,-4.605,,,2153721.0,1767084438.301875,1
0.0,-9.875,,,2154023.0,1767084438.336875,1
0.0,-21.14,,,2153385.0,1767084438.371875,1
0.0,-39.48333333333333,,,2152997.0,1767084438.406875,1
0.0,-52.215,,,2152981.0,1767084438.441875,1
0.0,-49.67,,,2153321.0,1767084438.476875,1
0.0,-34.395,0.458551,34.93,2150342.0,1767084438.511875,1
0.0,-13.215,,,2147150.0,1767084438.546875,1
0.0,10.223333333333334,,,2145557.0,1767084438.581875,1
0.0,28.96,,,,1767084438.616875,1
0.0,39.875,,,2144261.0,1767084438.651875,1
0.0,44.395,,,2142930.0,1767084438.686875,1
0.0,40.406666666666666,,,2141295.0,1767084438.721875,1
0.0,31.055,0.459832,34.93,2140021.0,1767084438.756875,1
0.0,22.655,,,2139456.0,1767084438.791875,1
0.0,16.075,,,2140610.0,1767084438.826875,1
0.0,13.656666666666666,,,2141317.0,1767084438.861875,1
0.0,15.94,,,,1767084438.896875,1
0.0,16.975,,,2141035.0,1767084438.931875,1
0.0,14.489999999999998,,,2140901.0,1767084438.966875,1
0.0,8.273333333333333,0.461113,34.93,2141534.0,1767084439.001875,1
0.0,1.845,,,2141808.0,1767084439.036875,1
0.0,-4.01,,,2142158.0,1767084439.071875,1
0.0,-12.02,,,2142584.0,1767084439.106875,1
0.0,-24.78333333333333,,,2143143.0,1767084439.141875,1
0.0,-34.94,,,,1767084439.176875,1
0.0,-33.0,,,2143907.0,1767084439.211875,1
0.0,-18.845,,,2144482.0,1767084439.246875,1
0.0,7.43,0.45727,34.93,2145343.0,1767084439.281875,1
0.0,28.875,,,2146467.0,1767084439.316875,1
0.0,36.905,,,2147183.0,1767084439.351875,1
0.0,38.09,,,2148074.0,1767084439.386875,1
0.0,37.435,,,2147890.0,1767084439.421875,1
0.0,41.57333333333333,,,,1767084439.456875,1
0.0,48.395,,,2146884.0,1767084439.491875,1
0.0,51.17,0.455989,34.93,2145545.0,1767084439.526875,1
0.0,54.085,,,2144652.0,1767084439.561875,1
0.0,64.83,,,2144225.0,1767084439.596875,1
0.0,77.81,,,2144018.0,1767084439.631875,1
0.0,81.67,,,2144251.0,1767084439.666875,1
0.0,78.59,,,2144369.0,1767084439.701875,1
0.0,71.66,,,,1767084439.736875,1
0.0,65.865,0.455989,34.93,2144223.0,1767084439.771875,1
0.0,57.985,,,2144440.0,1767084439.806875,1
0.0,43.115,,,2144618.0,1767084439.841875,1
0.0,22.856666666666666,,,2144701.0,1767084439.876875,1
0.0,11.9,,,2144701.0,1767084439.911875,1
0.0,5.45,,,2145245.0,1767084439.946875,1
0.0,-9.25,,,2145715.0,1767084439.981875,1
0.0,-39.66,0.458551,34.93,,1767084440.016875,1
0.0,-71.35,,,2146270.0,1767084440.051875,1
0.0,-90.98,,,2147174.0,1767084440.086875,1
0.0,-102.715,,,2148099.0,1767084440.121875,1
0.0,-104.05,,,2148239.0,1767084440.156875,1
0.0,-95.345,,,2147178.0,1767084440.191875,1
0.0,-86.14,,,2145924.0,1767084440.226875,1
0.0,-77.765,0.458551,34.95,2144931.0,1767084440.261875,1
0.0,-69.28,,,,1767084440.296875,1
0.0,-59.81,,,2143926.0,1767084440.331875,1
0.0,-57.265,,,2143387.0,1767084440.366875,1
0.0,-61.805,,,2143173.0,1767084440.401875,1
0.0,-69.37,,,2143137.0,1767084440.436875,1
0.0,-81.96333333333332,,,2142946.0,1767084440.471875,1
0.0,-92.44,0.454708,34.95,2142949.0,1767084440.506875,1
0.0,-88.68,,,2143184.0,1767084440.541875,1
0.0,-71.675,,,,1767084440.576875,1
0.0,-44.56666666666666,,,2143583.0,1767084440.611875,1
0.0,-20.48,,,2144016.0,1767084440.646875,1
0.0,-2.54,,,2144544.0,1767084440.681875,1
0.0,12.015,,,2145065.0,1767084440.716875,1
0.0,20.04,0.453427,34.95,2145659.0,1767084440.751875,1
0.0,23.895,,,2146349.0,1767084440.786875,1
0.0,29.8,,,2146781.0,1767084440.821875,1
0.0,36.150000000000006,,,,1767084440.856875,1
0.0,39.11333333333334,,,2147072.0,1767084440.891875,1
0.0,37.515,,,2146061.0,1767084440.926875,1
0.0,33.685,,,2144337.0,1767084440.961875,1
0.0,27.39,,,2142644.0,1767084440.996875,1
0.0,17.666666666666664,0.458551,34.95,2141384.0,1767084441.031875,1
0.0,7.895,,,2140233.0,1767084441.066875,1
0.0,-1.8000000000000005,,,2139436.0,1767084441.101875,1
0.0,-15.015,,,2138873.0,1767084441.136875,1
0.0,-29.535,,,,1767084441.171875,1
0.0,-38.31333333333333,,,2138267.0,1767084441.206875,1
0.0,-28.55,,,2138034.0,1767084441.241875,1
0.0,-9.545,0.455989,34.93,2137626.0,1767084441.276875,1
0.0,9.41,,,2137358.0,1767084441.311875,1
0.0,26.486666666666668,,,2137296.0,1767084441.346875,1
0.0,37.635,,,2137332.0,1767084441.381875,1
0.0,40.78,,,2137169.0,1767084441.416875,1
0.0,38.85,,,,1767084441.451875,1
0.0,36.046666666666674,,,2137675.0,1767084441.486875,1
0.0,36.96,0.450866,34.93,2138443.0,1767084441.521875,1
0.0,37.17,,,2137843.0,1767084441.556875,1
0.0,35.365,,,2134953.0,1767084441.591875,1
0.0,33.656666666666666,,,2129728.0,1767084441.626875,1
0.0,31.1,,,2124390.0,1767084441.661875,1
0.0,25.435,,,,1767084441.696875,1
0.0,18.185,,,2119258.0,1767084441.731875,1
0.0,9.96,0.450866,34.93,2114484.0,1767084441.766875,1
0.0,1.23,,,2111493.0,1767084441.801875,1
0.0,-8.0,,,2109101.0,1767084441.836875,1
0.0,-19.655,,,2102631.0,1767084441.871875,1
0.0,-35.32666666666666,,,2095770.0,1767084441.906875,1
0.0,-44.85,,,2092328.0,1767084441.941875,1
0.0,-41.39,,,2090219.0,1767084441.976875,1
0.0,-28.395,0.454708,34.93,2090226.0,1767084442.011875,1
0.0,-11.395,,,2092248.0,1767084442.046875,1
0.0,5.25,,,,1767084442.081875,1
0.0,13.175,,,2094532.0,1767084442.116875,1
0.0,15.365,,,2096649.0,1767084442.151875,1
0.0,18.505000000000003,,,2099064.0,1767084442.186875,1
0.0,27.08,,,2100933.0,1767084442.221875,1
0.0,36.845,0.458551,34.95,2102799.0,1767084442.256875,1
0.0,40.06,,,2104959.0,1767084442.291875,1
0.0,37.67,,,2106788.0,1767084442.326875,1
0.0,30.76,,,,1767084442.361875,1
0.0,23.31,,,2108413.0,1767084442.396875,1
0.0,17.134999999999998,,,2108864.0,1767084442.431875,1
0.0,10.475,,,2107829.0,1767084442.466875,1
0.0,0.0699999999999999,0.454708,34.95,2106581.0,1767084442.501875,1
0.0,-12.875,,,2105732.0,1767084442.536875,1
0.0,-22.72,,,2105135.0,1767084442.571875,1
0.0,-30.055,,,2105516.0,1767084442.606875,1
0.0,-37.82,,,,1767084442.641875,1
0.0,-47.175,,,2106480.0,1767084442.676875,1
0.0,-53.585,,,2107267.0,1767084442.711875,1
0.0,-51.69,,,2108968.0,1767084442.746875,1
0.0,-29.27666666666667,0.454708,34.95,2110528.0,1767084442.781875,1
0.0,5.3,,,2112205.0,1767084442.816875,1
0.0,29.62,,,2113814.0,1767084442.851875,1
0.0,46.285,,,2115161.0,1767084442.886875,1
0.0,57.095,,,,1767084442.921875,1
0.0,61.96666666666667,,,2117024.0,1767084442.956875,1
0.0,57.665,,,2118874.0,1767084442.991875,1
0.0,52.465,0.454708,34.95,2120750.0,1767084443.026875,1
0.0,50.085,,,2122270.0,1767084443.061875,1
0.0,47.00666666666667,,,2123748.0,1767084443.096875,1
0.0,40.05,,,2124780.0,1767084443.131875,1
0.0,32.19,,,2124366.0,1767084443.166875,1
0.0,21.93,,,,1767084443.201875,1
0.0,5.853333333333334,,,2123423.0,1767084443.236875,1
0.0,-9.525,0.45727,34.93,2122879.0,1767084443.271875,1
0.0,-19.99,,,2122449.0,1767084443.306875,1
0.0,-30.465,,,2121836.0,1767084443.341875,1
0.0,-45.84,,,2120750.0,1767084443.376875,1
0.0,-64.115,,,2119651.0,1767084443.411875,1
0.0,-78.815,,,2118372.0,1767084443.446875,1
0.0,-87.685,,,,1767084443.481875,1
0.0,-79.30666666666667,0.458551,34.93,2117255.0,1767084443.516875,1
0.0,-50.085,,,2117072.0,1767084443.551875,1
0.0,-20.630000000000003,,,2117090.0,1767084443.586875,1
0.0,2.9450000000000003,,,2117347.0,1767084443.621875,1
0.0,18.66,,,2117741.0,1767084443.656875,1
0.0,23.03,,,2118128.0,1767084443.691875,1
0.0,21.65,,,2118716.0,1767084443.726875,1
0.0,20.97,0.454708,34.93,,1767084443.761875,1
0.0,22.73,,,2119178.0,1767084443.796875,1
0.0,23.51,,,2119077.0,1767084443.831875,1
0.0,19.08,,,2117838.0,1767084443.866875,1
0.0,13.39,,,2114723.0,1767084443.901875,1
0.0,7.985,,,2111458.0,1767084443.936875,1
0.0,0.4600000000000001,,,2106321.0,1767084443.971875,1
0.0,-9.035,0.453427,34.93,,1767084444.006875,1
0.0,-16.064999999999998,,,2099942.0,1767084444.041875,1
0.0,-20.67,,,2095129.0,1767084444.076875,1
0.0,-26.17,,,2089974.0,1767084444.111875,1
0.0,-36.015,,,2084885.0,1767084444.146875,1
0.0,-46.46,,,2080822.0,1767084444.181875,1
0.0,-52.595,,,2080109.0,1767084444.216875,1
0.0,-42.49333333333333,0.455989,34.93,2077944.0,1767084444.251875,1
0.0,-16.335,,,2072900.0,1767084444.286875,1
0.0,4.88,,,,1767084444.321875,1
0.0,18.125,,,2069444.0,1767084444.356875,1
0.0,24.15,,,2068385.0,1767084444.391875,1
0.0,23.655,,,2070270.0,1767084444.426875,1
0.0,21.505,,,2072813.0,1767084444.461875,1
0.0,21.575,,,2074169.0,1767084444.496875,1
0.0,25.94666666666667,0.455989,34.93,2075179.0,1767084444.531875,1
0.0,30.445,,,,1767084444.566875,1
0.0,31.145,,,2075914.0,1767084444.601875,1
0.0,29.18,,,2077051.0,1767084444.636875,1
0.0,25.755,,,2078257.0,1767084444.671875,1
0.0,21.7,,,2079364.0,1767084444.706875,1
0.0,18.93,,,2079981.0,1767084444.741875,1
0.0,15.375,0.453427,34.93,2080252.0,1767084444.776875,1
0.0,6.675000000000001,,,2078773.0,1767084444.811875,1
0.0,-9.856666666666667,,,,1767084444.846875,1
0.0,-18.865,,,2077454.0,1767084444.881875,1
0.0,-11.205,,,2077457.0,1767084444.916875,1
0.0,5.59,,,2078642.0,1767084444.951875,1
0.0,23.88,,,2081034.0,1767084444.986875,1
0.0,31.12,0.454708,34.93,2083006.0,1767084445.021875,1
0.0,29.72,,,2084690.0,1767084445.056875,1
0.0,24.700000000000003,,,2086666.0,1767084445.091875,1
0.0,16.423333333333336,,,,1767084445.126875,1
0.0,11.525,,,2087328.0,1767084445.161875,1
0.0,11.885,,,2086960.0,1767084445.196875,1
0.0,12.77,,,2085828.0,1767084445.231875,1
0.0,10.063333333333334,0.452147,34.91,2084966.0,1767084445.266875,1
0.0,2.815,,,2084642.0,1767084445.301875,1
0.0,-4.82,,,2084976.0,1767084445.336875,1
0.0,-11.58,,,2085721.0,1767084445.371875,1
0.0,-19.576666666666668,,,,1767084445.406875,1
0.0,-32.61,,,2086034.0,1767084445.441875,1
0.0,-48.21,,,2086588.0,1767084445.476875,1
0.0,-61.510000000000005,0.453427,34.91,2087404.0,1767084445.511875,1
0.0,-62.265,,,2088631.0,1767084445.546875,1
0.0,-40.806666666666665,,,2089630.0,1767084445.581875,1
0.0,-12.845,,,2090695.0,1767084445.616875,1
0.0,2.005,,,2092284.0,1767084445.651875,1
0.0,10.145,,,,1767084445.686875,1
0.0,13.803333333333333,,,2093441.0,1767084445.721875,1
0.0,11.5,0.454708,34.91,2094724.0,1767084445.756875,1
0.0,8.055,,,2096026.0,1767084445.791875,1
0.0,5.845000000000001,,,2096484.0,1767084445.826875,1
0.0,4.276666666666666,,,2095190.0,1767084445.861875,1
0.0,3.685,,,2093518.0,1767084445.896875,1
0.0,3.27,,,2092447.0,1767084445.931875,1
0.0,0.0549999999999999,,,2091942.0,1767084445.966875,1
0.0,-9.556666666666668,0.450866,34.91,,1767084446.001875,1
0.0,-20.205,,,2091420.0,1767084446.036875,1
0.0,-26.16,,,2091698.0,1767084446.071875,1
0.0,-31.72,,,2091598.0,1767084446.106875,1
0.0,-43.27333333333333,,,2091438.0,1767084446.141875,1
0.0,-54.1,,,2091566.0,1767084446.176875,1
0.0,-49.48,,,2091781.0,1767084446.211875,1
0.0,-28.770000000000003,,,2091956.0,1767084446.246875,1
0.0,5.963333333333334,0.449585,34.91,2092811.0,1767084446.281875,1
0.0,33.24,,,,1767084446.316875,1
0.0,45.32,,,2092574.0,1767084446.351875,1
0.0,49.81,,,2088291.0,1767084446.386875,1
0.0,48.035,,,2083937.0,1767084446.421875,1
0.0,42.48666666666667,,,2081084.0,1767084446.456875,1
0.0,39.385,,,2079672.0,1767084446.491875,1
0.0,38.755,0.450866,34.91,2077802.0,1767084446.526875,1
0.0,37.555,,,2075656.0,1767084446.561875,1
0.0,34.87,,,,1767084446.596875,1
0.0,29.515,,,2074772.0,1767084446.631875,1
0.0,20.35,,,2074707.0,1767084446.666875,1
0.0,8.28,,,2074874.0,1767084446.701875,1
0.0,-5.926666666666667,,,2075495.0,1767084446.736875,1
0.0,-20.51,0.455989,34.91,2076179.0,1767084446.771875,1
0.0,-36.44,,,2077075.0,1767084446.806875,1
0.0,-55.835,,,2078012.0,1767084446.841875,1
0.0,-73.03666666666668,,,,1767084446.876875,1
0.0,-67.175,,,2079376.0,1767084446.911875,1
0.0,-43.14,,,2081152.0,1767084446.946875,1
0.0,-14.9,,,2082363.0,1767084446.981875,1
0.0,11.339999999999998,0.449585,34.91,2083868.0,1767084447.016875,1
0.0,26.595,,,2085606.0,1767084447.051875,1
0.0,31.835,,,2087385.0,1767084447.086875,1
0.0,34.36,,,2088138.0,1767084447.121875,1
0.0,40.78,,,2087532.0,1767084447.156875,1
0.0,49.370000000000005,,,2086656.0,1767084447.191875,1
0.0,52.69,,,,1767084447.226875,1
0.0,53.37,0.450866,34.93,2085749.0,1767084447.261875,1
0.0,53.89,,,,1767084447.296875,1
0.0,51.02666666666666,,,2085604.0,1767084447.331875,1
0.0,39.88,,,2085860.0,1767084447.366875,1
0.0,27.185,,,2086585.0,1767084447.401875,1
0.0,17.225,,,2087089.0,1767084447.436875,1
0.0,10.683333333333332,,,2087984.0,1767084447.471875,1
0.0,8.235,0.448304,34.93,2088496.0,1767084447.506875,1
0.0,13.835,,,2089109.0,1767084447.541875,1
0.0,28.985,,,,1767084447.576875,1
0.0,50.53666666666667,,,2089919.0,1767084447.611875,1
0.0,62.615,,,2091167.0,1767084447.646875,1
0.0,65.04499999999999,,,2091866.0,1767084447.681875,1
0.0,64.68,,,2092758.0,1767084447.716875,1
0.0,61.64333333333334,0.452147,34.93,2093940.0,1767084447.751875,1
0.0,52.69,,,2095089.0,1767084447.786875,1
0.0,32.065,,,,1767084447.821875,1
0.0,-3.78,,,2096316.0,1767084447.856875,1
0.0,-52.23333333333333,,,2095481.0,1767084447.891875,1
0.0,-82.24000000000001,,,2094088.0,1767084447.926875,1
0.0,-89.9,,,2092790.0,1767084447.961875,1
0.0,-91.15,,,2091936.0,1767084447.996875,1
0.0,-88.65333333333335,0.452147,34.93,2091299.0,1767084448.031875,1
0.0,-83.37,,,2091173.0,1767084448.066875,1
0.0,-79.605,,,2091171.0,1767084448.101875,1
0.0,-78.28,,,2091180.0,1767084448.136875,1
0.0,-79.22999999999999,,,2091283.0,1767084448.171875,1
0.0,-77.40333333333332,,,,1767084448.206875,1
0.0,-60.465,,,2091607.0,1767084448.241875,1
0.0,-31.880000000000003,0.448304,34.91,2092301.0,1767084448.276875,1
0.0,0.1799999999999997,,,2092908.0,1767084448.311875,1
0.0,29.846666666666664,,,2093822.0,1767084448.346875,1
0.0,43.165,,,2095082.0,1767084448.381875,1
0.0,41.715,,,2095952.0,1767084448.416875,1
0.0,36.955,,,2096923.0,1767084448.451875,1
0.0,39.16666666666666,,,,1767084448.486875,1
0.0,48.885000000000005,0.447023,34.91,2097562.0,1767084448.521875,1
0.0,54.38,,,2096608.0,1767084448.556875,1
0.0,55.685,,,2094641.0,1767084448.591875,1
0.0,55.47666666666667,,,2092245.0,1767084448.626875,1
0.0,52.370000000000005,,,2086074.0,1767084448.661875,1
0.0,41.945,,,2077489.0,1767084448.696875,1
0.0,22.415,,,2070247.0,1767084448.731875,1
0.0,-8.976666666666667,0.447023,34.91,2064933.0,1767084448.766875,1
0.0,-40.42,,,,1767084448.801875,1
0.0,-64.89,,,2066162.0,1767084448.836875,1
0.0,-86.83,,,2069086.0,1767084448.871875,1
0.0,-97.55,,,2070607.0,1767084448.906875,1
0.0,-81.5,,,2068807.0,1767084448.941875,1
0.0,-52.92,,,2065856.0,1767084448.976875,1
0.0,-23.305,0.448304,34.91,2063777.0,1767084449.011875,1
0.0,0.2550000000000003,,,2062578.0,1767084449.046875,1
0.0,17.849999999999998,,,,1767084449.081875,1
0.0,22.65,,,2062880.0,1767084449.116875,1
0.0,20.145000000000003,,,2063523.0,1767084449.151875,1
0.0,18.725,,,2065485.0,1767084449.186875,1
0.0,19.0,,,2068569.0,1767084449.221875,1
0.0,16.68,0.447023,34.93,2069066.0,1767084449.256875,1
0.0,14.095,,,2070347.0,1767084449.291875,1
0.0,12.66,,,2071525.0,1767084449.326875,1
0.0,7.653333333333333,,,,1767084449.361875,1
0.0,-2.3150000000000004,,,2073578.0,1767084449.396875,1
0.0,-9.475,,,2075744.0,1767084449.431875,1
0.0,-12.695,,,2076861.0,1767084449.466875,1
0.0,-13.93,0.447023,34.93,2077398.0,1767084449.501875,1
0.0,-19.035,,,2077768.0,1767084449.536875,1
0.0,-26.61,,,2077911.0,1767084449.571875,1
0.0,-28.115,,,,1767084449.606875,1
0.0,-10.646666666666668,,,2078623.0,1767084449.641875,1
0.0,15.94,,,2079122.0,1767084449.676875,1
0.0,31.74,,,2079841.0,1767084449.711875,1
0.0,40.605,,,2080958.0,1767084449.746875,1
0.0,43.84,0.449585,34.93,2081691.0,1767084449.781875,1
0.0,40.370000000000005,,,2082596.0,1767084449.816875,1
0.0,36.285,,,2083216.0,1767084449.851875,1
0.0,34.155,,,2082094.0,1767084449.886875,1
0.0,32.37,,,2080215.0,1767084449.921875,1
0.0,27.28333333333333,,,,1767084449.956875,1
0.0,19.93,,,2078970.0,1767084449.991875,1
0.0,12.495,0.448304,34.93,2078267.0,1767084450.026875,1
0.0,2.455,,,2077829.0,1767084450.061875,1
0.0,-13.313333333333333,,,2078040.0,1767084450.096875,1
0.0,-28.785,,,2078480.0,1767084450.131875,1
0.0,-40.195,,,2078909.0,1767084450.166875,1
0.0,-52.54,,,,1767084450.201875,1
0.0,-64.96,,,2079044.0,1767084450.236875,1
0.0,-60.755,0.447023,34.91,2079627.0,1767084450.271875,1
0.0,-38.345,,,2080422.0,1767084450.306875,1
0.0,-7.55,,,2081131.0,1767084450.341875,1
0.0,24.22666666666667,,,2082171.0,1767084450.376875,1
0.0,39.77,,,2083061.0,1767084450.411875,1
0.0,39.285,,,2083959.0,1767084450.446875,1
0.0,32.415,,,2085070.0,1767084450.481875,1
0.0,25.906666666666663,0.44318,34.91,2085850.0,1767084450.516875,1
0.0,26.575,,,2086052.0,1767084450.551875,1
0.0,28.655,,,,1767084450.586875,1
0.0,28.135,,,2084622.0,1767084450.621875,1
0.0,22.423333333333336,,,2083206.0,1767084450.656875,1
0.0,9.105,,,2082176.0,1767084450.691875,1
0.0,-7.795,,,2081496.0,1767084450.726875,1
0.0,-24.985,0.454708,34.91,2080994.0,1767084450.761875,1
0.0,-37.9,,,2076158.0,1767084450.796875,1
0.0,-49.38666666666666,,,2068886.0,1767084450.831875,1
0.0,-62.175,,,,1767084450.866875,1
0.0,-73.285,,,2062688.0,1767084450.901875,1
0.0,-78.14,,,2056671.0,1767084450.936875,1
0.0,-65.55666666666667,,,2056671.0,1767084450.971875,1
0.0,-38.260000000000005,0.447023,34.91,2052101.0,1767084451.006875,1
0.0,-15.475,,,2050872.0,1767084451.041875,1
0.0,1.6149999999999998,,,2053268.0,1767084451.076875,1
0.0,13.956666666666669,,,2054125.0,1767084451.111875,1
0.0,19.24,,,2055453.0,1767084451.146875,1
0.0,21.235,,,,1767084451.181875,1
0.0,24.8,,,2056631.0,1767084451.216875,1
0.0,30.44333333333333,0.445742,34.89,2054512.0,1767084451.251875,1
0.0,33.46,,,2051548.0,1767084451.286875,1
0.0,33.95,,,2049980.0,1767084451.321875,1
0.0,33.385,,,2049637.0,1767084451.356875,1
0.0,28.55666666666667,,,2049737.0,1767084451.391875,1
0.0,18.825000000000003,,,2049393.0,1767084451.426875,1
0.0,9.61,,,,1767084451.461875,1
0.0,1.53,,,2050137.0,1767084451.496875,1
0.0,-7.426666666666667,0.44318,34.89,2051157.0,1767084451.531875,1
0.0,-18.94,,,2052562.0,1767084451.566875,1
0.0,-30.380000000000003,,,2054163.0,1767084451.601875,1
0.0,-36.75,,,2055640.0,1767084451.636875,1
0.0,-29.435,,,2057395.0,1767084451.671875,1
0.0,-2.313333333333334,,,2059718.0,1767084451.706875,1
0.0,23.515,,,,1767084451.741875,1
0.0,32.135,0.44318,34.89,2061253.0,1767084451.776875,1
0.0,33.730000000000004,,,2062624.0,1767084451.811875,1
0.0,34.940000000000005,,,2064044.0,1767084451.846875,1
0.0,39.32,,,2065087.0,1767084451.881875,1
0.0,47.615,,,2066864.0,1767084451.916875,1
0.0,59.25,,,2069398.0,1767084451.951875,1
0.0,70.11666666666666,,,2072308.0,1767084451.986875,1
0.0,73.845,0.445742,34.89,,1767084452.021875,1
0.0,76.89500000000001,,,2074933.0,1767084452.056875,1
0.0,83.825,,,2076539.0,1767084452.091875,1
0.0,91.4,,,2076349.0,1767084452.126875,1
0.0,92.47,,,2075825.0,1767084452.161875,1
0.0,93.04,,,2075443.0,1767084452.196875,1
0.0,96.75,,,2075444.0,1767084452.231875,1
0.0,96.12333333333332,0.445742,34.89,2075766.0,1767084452.266875,1
0.0,76.355,,,,1767084452.301875,1
0.0,42.215,,,2076002.0,1767084452.336875,1
0.0,5.79,,,2076795.0,1767084452.371875,1
0.0,-13.660000000000002,,,2077162.0,1767084452.406875,1
0.0,-17.810000000000002,,,2077560.0,1767084452.441875,1
0.0,-43.375,,,2078602.0,1767084452.476875,1
0.0,-91.67,0.4419,34.89,2079295.0,1767084452.511875,1
0.0,-137.255,,,2080310.0,1767084452.546875,1
0.0,-169.68,,,,1767084452.581875,1
0.0,-184.22,,,2081553.0,1767084452.616875,1
0.0,-178.79500000000002,,,2082358.0,1767084452.651875,1
0.0,-154.51,,,2083451.0,1767084452.686875,1
0.0,-113.57,,,2084762.0,1767084452.721875,1
0.0,-79.1,0.44318,34.89,2085770.0,1767084452.756875,1
0.0,-57.370000000000005,,,2085753.0,1767084452.791875,1
0.0,-40.875,,,,1767084452.826875,1
0.0,-32.75333333333333,,,2084648.0,1767084452.861875,1
0.0,-31.130000000000003,,,2083473.0,1767084452.896875,1
0.0,-26.13,,,2082833.0,1767084452.931875,1
0.0,-19.265,,,2082805.0,1767084452.966875,1
0.0,-20.460000000000004,0.44318,34.89,2082774.0,1767084453.001875,1
0.0,-34.254999999999995,,,2083113.0,1767084453.036875,1
0.0,-48.44,,,2083339.0,1767084453.071875,1
0.0,-59.02,,,,1767084453.106875,1
0.0,-57.57666666666666,,,2083619.0,1767084453.141875,1
0.0,-35.19,,,2084209.0,1767084453.176875,1
0.0,-9.095,,,2084972.0,1767084453.211875,1
0.0,10.68,,,2085920.0,1767084453.246875,1
0.0,22.153333333333336,0.444461,34.89,2086644.0,1767084453.281875,1
0.0,24.74,,,2087821.0,1767084453.316875,1
0.0,22.235,,,2088898.0,1767084453.351875,1
0.0,21.165,,,,1767084453.386875,1
0.0,26.19,,,2090113.0,1767084453.421875,1
0.0,38.25333333333333,,,2090676.0,1767084453.456875,1
0.0,50.09,,,2090005.0,1767084453.491875,1
0.0,57.885,0.440619,34.89,2088944.0,1767084453.526875,1
0.0,61.825,,,2088581.0,1767084453.561875,1
0.0,55.446666666666665,,,2088702.0,1767084453.596875,1
0.0,38.74,,,2088835.0,1767084453.631875,1
0.0,22.955,,,,1767084453.666875,1
0.0,8.915,,,2089484.0,1767084453.701875,1
0.0,-6.506666666666667,,,2089822.0,1767084453.736875,1
0.0,-22.955,0.436776,34.89,2090195.0,1767084453.771875,1
0.0,-36.775000000000006,,,2090884.0,1767084453.806875,1
0.0,-44.5,,,2091942.0,1767084453.841875,1
0.0,-34.92666666666667,,,2093299.0,1767084453.876875,1
0.0,-10.665,,,2094786.0,1767084453.911875,1
0.0,8.785,,,,1767084453.946875,1
0.0,22.035,,,2096298.0,1767084453.981875,1
0.0,29.563333333333333,0.438057,34.89,2097936.0,1767084454.016875,1
0.0,29.44,,,2099765.0,1767084454.051875,1
0.0,26.19,,,2099761.0,1767084454.086875,1
0.0,26.335,,,2099364.0,1767084454.121875,1
0.0,36.54666666666666,,,2098522.0,1767084454.156875,1
0.0,50.66,,,2097929.0,1767084454.191875,1
0.0,56.415,,,,1767084454.226875,1
0.0,54.29,0.440619,34.91,2097803.0,1767084454.261875,1
0.0,48.405,,,2098084.0,1767084454.296875,1
0.0,44.82666666666668,,,2098304.0,1767084454.331875,1
0.0,43.82,,,2098672.0,1767084454.366875,1
0.0,39.16,,,2099166.0,1767084454.401875,1
0.0,31.325000000000003,,,2099454.0,1767084454.436875,1
0.0,25.606666666666666,,,2100412.0,1767084454.471875,1
0.0,32.595,0.439338,34.91,,1767084454.506875,1
0.0,49.785,,,2101313.0,1767084454.541875,1
0.0,69.565,,,2101958.0,1767084454.576875,1
0.0,82.28333333333332,,,2103133.0,1767084454.611875,1
0.0,69.17,,,2104142.0,1767084454.646875,1
0.0,29.845,,,2105209.0,1767084454.681875,1
0.0,-26.71,,,2106088.0,1767084454.716875,1
0.0,-88.45333333333332,0.436776,34.91,2105049.0,1767084454.751875,1
0.0,-120.1,,,,1767084454.786875,1
0.0,-120.705,,,2103835.0,1767084454.821875,1
0.0,-104.1,,,2102577.0,1767084454.856875,1
0.0,-72.62333333333333,,,2101845.0,1767084454.891875,1
0.0,-45.515,,,2101352.0,1767084454.926875,1
0.0,-30.78,,,2101295.0,1767084454.961875,1
0.0,-23.36,,,2101370.0,1767084454.996875,1
0.0,-28.416666666666668,0.435495,34.91,2101423.0,1767084455.031875,1
0.0,-43.42,,,,1767084455.066875,1
0.0,-54.260000000000005,,,2101684.0,1767084455.101875,1
0.0,-55.005,,,2102032.0,1767084455.136875,1
0.0,-40.2,,,2102449.0,1767084455.171875,1
0.0,-7.41,,,2102983.0,1767084455.206875,1
0.0,19.68,,,2103574.0,1767084455.241875,1
0.0,28.955,0.440619,34.91,2104664.0,1767084455.276875,1
0.0,30.805,,,2105632.0,1767084455.311875,1
0.0,26.75333333333333,,,,1767084455.346875,1
0.0,17.345,,,2106741.0,1767084455.381875,1
0.0,9.28,,,2108238.0,1767084455.416875,1
0.0,5.255,,,2108589.0,1767084455.451875,1
0.0,6.433333333333333,,,2108074.0,1767084455.486875,1
0.0,9.765,0.440619,34.91,2106315.0,1767084455.521875,1
0.0,10.44,,,2102925.0,1767084455.556875,1
0.0,7.24,,,,1767084455.591875,1
0.0,-0.4833333333333334,,,2098092.0,1767084455.626875,1
0.0,-8.455,,,2093514.0,1767084455.661875,1
0.0,-16.495,,,2089750.0,1767084455.696875,1
0.0,-28.77,,,2088286.0,1767084455.731875,1
0.0,-42.82,0.436776,34.91,2086080.0,1767084455.766875,1
0.0,-38.865,,,2083511.0,1767084455.801875,1
0.0,-17.18,,,2078961.0,1767084455.836875,1
0.0,10.315,,,,1767084455.871875,1
0.0,37.75666666666667,,,2073635.0,1767084455.906875,1
0.0,50.755,,,2071298.0,1767084455.941875,1
0.0,44.785,,,2072214.0,1767084455.976875,1
0.0,27.18,0.435495,34.91,2073410.0,1767084456.011875,1
0.0,9.39,,,2074398.0,1767084456.046875,1
0.0,-0.15,,,2077300.0,1767084456.081875,1
0.0,-1.4700000000000002,,,2080916.0,1767084456.116875,1
0.0,-2.71,,,,1767084456.151875,1
0.0,-5.13,,,2084167.0,1767084456.186875,1
0.0,-9.716666666666669,,,2087307.0,1767084456.221875,1
0.0,-17.345,0.436776,34.91,2089315.0,1767084456.256875,1
0.0,-25.295,,,2089750.0,1767084456.291875,1
0.0,-32.285,,,2089149.0,1767084456.326875,1
0.0,-37.96333333333333,,,2088674.0,1767084456.361875,1
0.0,-43.085,,,2088414.0,1767084456.396875,1
0.0,-49.38,,,,1767084456.431875,1
0.0,-56.655,,,2089343.0,1767084456.466875,1
0.0,-57.48,0.438057,34.91,2090394.0,1767084456.501875,1
0.0,-40.25,,,2091164.0,1767084456.536875,1
0.0,-15.31,,,2091505.0,1767084456.571875,1
0.0,8.215,,,2091934.0,1767084456.606875,1
0.0,28.47333333333333,,,2092780.0,1767084456.641875,1
0.0,42.335,,,2093319.0,1767084456.676875,1
0.0,48.15,,,,1767084456.711875,1
0.0,49.275,,,2093963.0,1767084456.746875,1
0.0,50.06333333333333,0.438057,34.91,2094941.0,1767084456.781875,1
0.0,52.81,,,2096220.0,1767084456.816875,1
0.0,54.005,,,2097318.0,1767084456.851875,1
0.0,53.55,,,2098454.0,1767084456.886875,1
0.0,51.18,,,2099691.0,1767084456.921875,1
0.0,42.93333333333334,,,2099865.0,1767084456.956875,1
0.0,31.48,,,,1767084456.991875,1
0.0,23.62,0.435495,34.91,2099193.0,1767084457.026875,1
0.0,15.335,,,2098533.0,1767084457.061875,1
0.0,0.2799999999999999,,,2098253.0,1767084457.096875,1
0.0,-15.57,,,2098194.0,1767084457.131875,1
0.0,-25.635,,,2098346.0,1767084457.166875,1
0.0,-35.89,,,2099211.0,1767084457.201875,1
0.0,-54.123333333333335,,,2099605.0,1767084457.236875,1
0.0,-73.74,0.439338,34.89,,1767084457.271875,1
0.0,-77.41499999999999,,,2100277.0,1767084457.306875,1
0.0,-62.08,,,2101024.0,1767084457.341875,1
0.0,-27.786666666666672,,,2101490.0,1767084457.376875,1
0.0,0.815,,,2102468.0,1767084457.411875,1
0.0,12.875,,,2103530.0,1767084457.446875,1
0.0,16.135,,,2104756.0,1767084457.481875,1
0.0,10.43,0.439338,34.89,,1767084457.516875,1
0.0,3.7,,,2105911.0,1767084457.551875,1
0.0,2.6950000000000003,,,2107204.0,1767084457.586875,1
0.0,3.06,,,2108259.0,1767084457.621875,1
0.0,1.2533333333333332,,,2109598.0,1767084457.656875,1
0.0,-0.27,,,2110399.0,1767084457.691875,1
0.0,-0.235,,,2109638.0,1767084457.726875,1
