ID,empatica_bvp,empatica_eda,empatica_temp,samsung_bvp,time,CL
1.0,26.05,0.117854,35.5,,1760267461.0202725,1
1.0,24.46,,,,1760267461.05617,1
1.0,23.165,,,,1760267461.0920672,1
1.0,20.996666666666666,,,,1760267461.1279647,1
1.0,19.35,,,,1760267461.1638622,1
1.0,19.265,,,,1760267461.1997597,1
1.0,19.756666666666668,,,,1760267461.235657,1
1.0,18.73,0.124259,35.5,,1760267461.2715545,1
1.0,14.82,,,,1760267461.307452,1
1.0,8.59,,,,1760267461.3433495,1
1.0,0.45,,,,1760267461.3792467,1
1.0,-7.27,,,,1760267461.4151442,1
1.0,-14.0,,,,1760267461.4510417,1
1.0,-23.223333333333333,,,,1760267461.4869392,1
1.0,-32.745000000000005,0.126821,35.5,,1760267461.5228364,1
1.0,-40.035,,,,1760267461.558734,1
1.0,-49.57666666666666,,,,1760267461.5946314,1
1.0,-62.415,,,,1760267461.630529,1
1.0,-73.74000000000001,,,,1760267461.6664262,1
1.0,-78.57499999999999,,,,1760267461.7023237,1
1.0,-67.46666666666665,,,,1760267461.7382212,1
1.0,-45.445,0.119135,35.5,,1760267461.7741187,1
1.0,-28.445,,,,1760267461.810016,1
1.0,-11.486666666666666,,,,1760267461.8459134,1
1.0,2.095,,,,1760267461.881811,1
1.0,8.08,,,,1760267461.9177084,1
1.0,10.333333333333334,,,,1760267461.9536057,1
1.0,16.735,,,,1760267461.9895031,1
1.0,31.689999999999998,0.133226,35.5,,1760267462.0254006,1
1.0,53.230000000000004,,,,1760267462.0612981,1
1.0,80.58999999999999,,,,1760267462.0971956,1
1.0,105.61,,,,1760267462.1330929,1
1.0,126.54499999999999,,,,1760267462.1689904,1
1.0,154.74999999999997,,,,1760267462.2048879,1
1.0,180.23,,,,1760267462.2407854,1
1.0,191.655,0.122978,35.53,,1760267462.2766826,1
1.0,185.43333333333337,,,,1760267462.31258,1
1.0,153.175,,,,1760267462.3484776,1
1.0,98.93,,,,1760267462.384375,1
1.0,16.185000000000002,,,,1760267462.4202724,1
1.0,-99.83,,,,1760267462.4561698,1
1.0,-181.75,,,,1760267462.4920673,1
1.0,-203.375,0.116573,35.53,,1760267462.5279648,1
1.0,-181.27,,,,1760267462.563862,1
1.0,-124.08000000000001,,,,1760267462.5997596,1
1.0,-74.06,,,,1760267462.635657,1
1.0,-38.945,,,,1760267462.6715546,1
1.0,-13.03,,,,1760267462.7074518,1
1.0,8.74,,,,1760267462.7433493,1
1.0,25.27,0.117854,35.53,,1760267462.7792468,1
1.0,41.196666666666665,,,,1760267462.8151443,1
1.0,51.67,,,,1760267462.8510416,1
1.0,56.665,,,,1760267462.886939,1
1.0,66.92,,,,1760267462.9228365,1
1.0,87.345,,,,1760267462.958734,1
1.0,95.0,,,,1760267462.9946315,1
1.0,73.0,0.119135,35.53,,1760267463.0305288,1
1.0,15.696666666666665,,,,1760267463.0664263,1
1.0,-32.275,,,,1760267463.1023238,1
1.0,-54.735,,,,1760267463.1382213,1
1.0,-75.77,,,,1760267463.1741185,1
1.0,-90.7,,,,1760267463.210016,1
1.0,-96.08000000000001,,,,1760267463.2459135,1
1.0,-98.86333333333334,0.119135,35.49,,1760267463.281811,1
1.0,-103.86500000000001,,,,1760267463.3177083,1
1.0,-113.39500000000001,,,,1760267463.3536057,1
1.0,-123.055,,,,1760267463.3895032,1
1.0,-114.64,,,,1760267463.4254007,1
1.0,-77.035,,,,1760267463.461298,1
1.0,-37.595,,,,1760267463.4971955,1
1.0,-1.8266666666666669,0.119135,35.49,,1760267463.533093,1
1.0,17.155,,,,1760267463.5689905,1
1.0,26.61,,,,1760267463.6048877,1
1.0,38.800000000000004,,,,1760267463.6407852,1
1.0,51.15,,,,1760267463.6766827,1
1.0,61.215,,,,1760267463.7125802,1
1.0,71.785,,,,1760267463.7484775,1
1.0,81.07333333333334,0.116573,35.49,,1760267463.784375,1
1.0,82.63499999999999,,,,1760267463.8202724,1
1.0,77.61500000000001,,,,1760267463.85617,1
1.0,61.48666666666667,,,,1760267463.8920672,1
1.0,38.519999999999996,,,,1760267463.9279647,1
1.0,22.665,,,,1760267463.9638622,1
1.0,10.82,,,,1760267463.9997597,1
1.0,-4.783333333333334,0.115292,35.49,,1760267464.0356572,1
1.0,-21.835,,,,1760267464.0715544,1
1.0,-32.61,,,,1760267464.107452,1
1.0,-43.04,,,,1760267464.1433494,1
1.0,-56.295,,,,1760267464.179247,1
1.0,-69.745,,,,1760267464.2151442,1
1.0,-77.69,0.119135,35.5,,1760267464.2510417,1
1.0,-63.625,,,,1760267464.2869391,1
1.0,-36.29,,,,1760267464.3228366,1
1.0,-6.935,,,,1760267464.358734,1
1.0,17.776666666666667,,,,1760267464.3946314,1
1.0,27.87,,,,1760267464.4305289,1
1.0,28.560000000000002,,,,1760267464.4664264,1
1.0,26.58,0.119135,35.5,,1760267464.5023236,1
1.0,25.305,,,,1760267464.5382211,1
1.0,26.29,,,,1760267464.5741186,1
1.0,28.02333333333333,,,,1760267464.610016,1
1.0,27.775,,,,1760267464.6459134,1
1.0,26.335,,,,1760267464.6818109,1
1.0,23.665,,,,1760267464.7177083,1
1.0,15.589999999999998,0.119135,35.5,,1760267464.7536058,1
1.0,2.455,,,,1760267464.789503,1
1.0,-8.905000000000001,,,,1760267464.8254006,1
1.0,-20.12666666666667,,,,1760267464.861298,1
1.0,-30.509999999999998,,,,1760267464.8971956,1
1.0,-42.08,,,,1760267464.9330928,1
1.0,-56.06666666666666,,,,1760267464.9689903,1
1.0,-54.385000000000005,0.117854,35.5,,1760267465.0048878,1
1.0,-33.75,,,,1760267465.0407853,1
1.0,-4.7,,,,1760267465.0766828,1
1.0,23.103333333333335,,,,1760267465.11258,1
1.0,34.19,,,,1760267465.1484776,1
1.0,33.370000000000005,,,,1760267465.184375,1
1.0,27.776666666666667,,,,1760267465.2202725,1
1.0,23.27,0.117854,35.5,,1760267465.2561698,1
1.0,22.560000000000002,,,,1760267465.2920673,1
1.0,22.59,,,,1760267465.3279648,1
1.0,22.003333333333334,,,,1760267465.3638623,1
1.0,21.265,,,,1760267465.3997595,1
1.0,18.02,,,,1760267465.435657,1
1.0,5.563333333333333,,,,1760267465.4715545,1
1.0,-12.48,0.121697,35.5,,1760267465.507452,1
1.0,-25.225,,,,1760267465.5433493,1
1.0,-36.973333333333336,,,,1760267465.5792468,1
1.0,-51.495000000000005,,,,1760267465.6151443,1
1.0,-68.36500000000001,,,,1760267465.6510417,1
1.0,-81.10499999999999,,,,1760267465.686939,1
1.0,-69.74333333333333,,,,1760267465.7228365,1
1.0,-30.395,0.120416,35.5,,1760267465.758734,1
1.0,4.63,,,,1760267465.7946315,1
1.0,31.78666666666666,,,,1760267465.8305287,1
1.0,43.644999999999996,,,,1760267465.8664262,1
1.0,46.8,,,,1760267465.9023237,1
1.0,47.173333333333325,,,,1760267465.9382212,1
1.0,46.515,,,,1760267465.9741185,1
1.0,46.105000000000004,0.117854,35.5,,1760267466.010016,1
1.0,44.32,,,,1760267466.0459135,1
1.0,39.17333333333334,,,,1760267466.081811,1
1.0,33.91,,,,1760267466.1177084,1
1.0,29.1,,,,1760267466.1536057,1
1.0,16.173333333333332,,,,1760267466.1895032,1
1.0,-2.24,,,,1760267466.2254007,1
1.0,-14.355,0.116573,35.49,,1760267466.2612982,1
1.0,-24.00666666666667,,,,1760267466.2971954,1
1.0,-36.63,,,,1760267466.333093,1
1.0,-53.925,,,,1760267466.3689904,1
1.0,-70.65,,,,1760267466.404888,1
1.0,-66.70666666666666,,,,1760267466.4407852,1
1.0,-28.82,,,,1760267466.4766827,1
1.0,12.35,0.116573,35.49,,1760267466.5125802,1
1.0,50.89333333333334,,,,1760267466.5484776,1
1.0,75.83000000000001,,,,1760267466.584375,1
1.0,90.77000000000001,,,,1760267466.6202724,1
1.0,99.38499999999999,,,,1760267466.65617,1
1.0,95.40666666666668,,,,1760267466.6920674,1
1.0,85.58000000000001,,,,1760267466.7279646,1
1.0,84.805,0.120416,35.49,,1760267466.7638621,1
1.0,91.13666666666666,,,,1760267466.7997596,1
1.0,92.355,,,,1760267466.8356571,1
1.0,83.705,,,,1760267466.8715544,1
1.0,58.696666666666665,,,,1760267466.9074519,1
1.0,23.115000000000002,,,,1760267466.9433494,1
1.0,-4.835000000000001,,,,1760267466.9792469,1
1.0,-26.59,0.120416,35.49,,1760267467.0151443,1
1.0,-45.843333333333334,,,,1760267467.0510416,1
1.0,-60.315,,,,1760267467.086939,1
1.0,-69.78999999999999,,,,1760267467.1228366,1
1.0,-79.78333333333332,,,,1760267467.158734,1
1.0,-87.16499999999999,,,,1760267467.1946313,1
1.0,-92.17,,,,1760267467.2305288,1
1.0,-102.86000000000001,0.119135,35.49,,1760267467.2664263,1
1.0,-118.58500000000001,,,,1760267467.3023238,1
1.0,-123.125,,,,1760267467.338221,1
1.0,-104.9,,,,1760267467.3741186,1
1.0,-51.593333333333334,,,,1760267467.410016,1
1.0,3.025,,,,1760267467.4459136,1
1.0,30.654999999999998,,,,1760267467.4818108,1
1.0,48.666666666666664,0.117854,35.49,,1760267467.5177083,1
1.0,58.57,,,,1760267467.5536058,1
1.0,61.980000000000004,,,,1760267467.5895033,1
1.0,61.51,,,,1760267467.6254005,1
1.0,58.705,,,,1760267467.661298,1
1.0,56.69,,,,1760267467.6971955,1
1.0,56.03,,,,1760267467.733093,1
1.0,55.79666666666666,0.121697,35.49,,1760267467.7689903,1
1.0,51.72,,,,1760267467.8048878,1
1.0,44.260000000000005,,,,1760267467.8407853,1
1.0,34.64666666666666,,,,1760267467.8766828,1
1.0,26.19,,,,1760267467.91258,1
1.0,18.44,,,,1760267467.9484775,1
1.0,10.25,,,,1760267467.984375,1
1.0,1.0333333333333334,0.121697,35.49,,1760267468.0202725,1
1.0,-7.8950000000000005,,,,1760267468.05617,1
1.0,-15.025,,,,1760267468.0920672,1
1.0,-23.023333333333337,,,,1760267468.1279647,1
1.0,-30.715,,,,1760267468.1638622,1
1.0,-39.11,,,,1760267468.1997597,1
1.0,-55.096666666666664,,,,1760267468.235657,1
1.0,-66.005,0.121697,35.47,,1760267468.2715545,1
1.0,-54.16,,,,1760267468.307452,1
1.0,-21.725,,,,1760267468.3433495,1
1.0,25.373333333333335,,,,1760267468.3792467,1
1.0,56.82,,,,1760267468.4151442,1
1.0,67.55000000000001,,,,1760267468.4510417,1
1.0,75.06333333333333,,,,1760267468.4869392,1
1.0,80.375,0.117854,35.47,,1760267468.5228364,1
1.0,76.935,,,,1760267468.558734,1
1.0,60.41,,,,1760267468.5946314,1
1.0,38.095,,,,1760267468.630529,1
1.0,20.34,,,,1760267468.6664262,1
1.0,5.765000000000001,,,,1760267468.7023237,1
1.0,-7.323333333333333,,,,1760267468.7382212,1
1.0,-18.765,0.117854,35.47,,1760267468.7741187,1
1.0,-27.39,,,,1760267468.810016,1
1.0,-34.69333333333333,,,,1760267468.8459134,1
1.0,-37.08,,,,1760267468.881811,1
1.0,-36.17,,,,1760267468.9177084,1
1.0,-33.693333333333335,,,,1760267468.9536057,1
1.0,-29.77,,,,1760267468.9895031,1
1.0,-26.525,0.122978,35.47,,1760267469.0254006,1
1.0,-25.675,,,,1760267469.0612981,1
1.0,-29.176666666666666,,,,1760267469.0971956,1
1.0,-36.97,,,,1760267469.1330929,1
1.0,-46.364999999999995,,,,1760267469.1689904,1
1.0,-53.98333333333333,,,,1760267469.2048879,1
1.0,-45.254999999999995,,,,1760267469.2407854,1
1.0,-24.1,0.122978,35.47,,1760267469.2766826,1
1.0,3.013333333333333,,,,1760267469.31258,1
1.0,18.09,,,,1760267469.3484776,1
1.0,22.369999999999997,,,,1760267469.384375,1
1.0,24.34,,,,1760267469.4202724,1
1.0,24.23,,,,1760267469.4561698,1
1.0,22.825000000000003,,,,1760267469.4920673,1
1.0,22.55,0.121697,35.47,,1760267469.5279648,1
1.0,23.0,,,,1760267469.563862,1
1.0,24.055,,,,1760267469.5997596,1
1.0,24.560000000000002,,,,1760267469.635657,1
1.0,22.48,,,,1760267469.6715546,1
1.0,16.31,,,,1760267469.7074518,1
1.0,9.925,,,,1760267469.7433493,1
1.0,4.93,0.119135,35.47,,1760267469.7792468,1
1.0,-2.0766666666666667,,,,1760267469.8151443,1
1.0,-7.83,,,,1760267469.8510416,1
1.0,-10.68,,,,1760267469.886939,1
1.0,-15.219999999999999,,,,1760267469.9228365,1
1.0,-22.745,,,,1760267469.958734,1
1.0,-29.265,,,,1760267469.9946315,1
1.0,-34.22,0.120416,35.47,,1760267470.0305288,1
1.0,-40.70333333333333,,,,1760267470.0664263,1
1.0,-51.625,,,,1760267470.1023238,1
1.0,-61.05,,,,1760267470.1382213,1
1.0,-58.42000000000001,,,,1760267470.1741185,1
1.0,-34.035,,,,1760267470.210016,1
1.0,-6.785,,,,1760267470.2459135,1
1.0,16.36,0.122978,35.47,,1760267470.281811,1
1.0,24.905,,,,1760267470.3177083,1
1.0,26.045,,,,1760267470.3536057,1
1.0,25.95,,,,1760267470.3895032,1
1.0,23.733333333333334,,,,1760267470.4254007,1
1.0,19.905,,,,1760267470.461298,1
1.0,17.02,,,,1760267470.4971955,1
1.0,13.719999999999999,0.121697,35.47,,1760267470.533093,1
1.0,10.129999999999999,,,,1760267470.5689905,1
1.0,6.4399999999999995,,,,1760267470.6048877,1
1.0,-0.06666666666666672,,,,1760267470.6407852,1
1.0,-6.119999999999999,,,,1760267470.6766827,1
1.0,-8.11,,,,1760267470.7125802,1
1.0,-8.49,,,,1760267470.7484775,1
1.0,-10.149999999999999,0.121697,35.47,,1760267470.784375,1
1.0,-12.965,,,,1760267470.8202724,1
1.0,-14.4,,,,1760267470.85617,1
1.0,-16.326666666666668,,,,1760267470.8920672,1
1.0,-20.57,,,,1760267470.9279647,1
1.0,-24.619999999999997,,,,1760267470.9638622,1
1.0,-28.04,,,,1760267470.9997597,1
1.0,-34.15333333333333,0.119135,35.47,,1760267471.0356572,1
1.0,-44.555,,,,1760267471.0715544,1
1.0,-51.955,,,,1760267471.107452,1
1.0,-44.99,,,,1760267471.1433494,1
1.0,-18.13,,,,1760267471.179247,1
1.0,6.444999999999999,,,,1760267471.2151442,1
1.0,23.78,0.120416,35.45,,1760267471.2510417,1
1.0,29.805,,,,1760267471.2869391,1
1.0,30.905,,,,1760267471.3228366,1
1.0,30.695,,,,1760267471.358734,1
1.0,30.55666666666667,,,,1760267471.3946314,1
1.0,31.18,,,,1760267471.4305289,1
1.0,31.485,,,,1760267471.4664264,1
1.0,32.263333333333335,0.122978,35.45,,1760267471.5023236,1
1.0,32.975,,,,1760267471.5382211,1
1.0,31.115000000000002,,,,1760267471.5741186,1
1.0,25.633333333333336,,,,1760267471.610016,1
1.0,20.035,,,,1760267471.6459134,1
1.0,15.865,,,,1760267471.6818109,1
1.0,10.555,,,,1760267471.7177083,1
1.0,2.55,0.121697,35.45,,1760267471.7536058,1
1.0,-4.7299999999999995,,,,1760267471.789503,1
1.0,-9.620000000000001,,,,1760267471.8254006,1
1.0,-15.453333333333333,,,,1760267471.861298,1
1.0,-20.995,,,,1760267471.8971956,1
1.0,-25.36,,,,1760267471.9330928,1
1.0,-31.94666666666667,,,,1760267471.9689903,1
1.0,-41.47,0.122978,35.45,,1760267472.0048878,1
1.0,-50.625,,,,1760267472.0407853,1
1.0,-53.775,,,,1760267472.0766828,1
1.0,-35.94,,,,1760267472.11258,1
1.0,-1.5549999999999997,,,,1760267472.1484776,1
1.0,22.86,,,,1760267472.184375,1
1.0,37.699999999999996,,,,1760267472.2202725,1
1.0,42.295,0.119135,35.45,,1760267472.2561698,1
1.0,43.325,,,,1760267472.2920673,1
1.0,44.16,,,,1760267472.3279648,1
1.0,46.653333333333336,,,,1760267472.3638623,1
1.0,50.68,,,,1760267472.3997595,1
1.0,54.93,,,,1760267472.435657,1
1.0,61.173333333333325,,,,1760267472.4715545,1
1.0,61.955,0.119135,35.45,,1760267472.507452,1
1.0,53.05,,,,1760267472.5433493,1
1.0,32.733333333333334,,,,1760267472.5792468,1
1.0,7.405,,,,1760267472.6151443,1
1.0,-14.265,,,,1760267472.6510417,1
1.0,-33.91,,,,1760267472.686939,1
1.0,-52.48333333333333,,,,1760267472.7228365,1
1.0,-62.015,0.122978,35.45,,1760267472.758734,1
1.0,-60.545,,,,1760267472.7946315,1
1.0,-50.48333333333333,,,,1760267472.8305287,1
1.0,-37.224999999999994,,,,1760267472.8664262,1
1.0,-28.72,,,,1760267472.9023237,1
1.0,-25.709999999999997,,,,1760267472.9382212,1
1.0,-26.05,,,,1760267472.9741185,1
1.0,-21.095,0.122978,35.45,,1760267473.010016,1
1.0,-9.24,,,,1760267473.0459135,1
1.0,6.693333333333334,,,,1760267473.081811,1
1.0,13.645,,,,1760267473.1177084,1
1.0,11.385,,,,1760267473.1536057,1
1.0,4.496666666666667,,,,1760267473.1895032,1
1.0,-3.875,,,,1760267473.2254007,1
1.0,-10.184999999999999,0.122978,35.43,,1760267473.2612982,1
1.0,-14.14333333333333,,,,1760267473.2971954,1
1.0,-14.715,,,,1760267473.333093,1
1.0,-15.205,,,,1760267473.3689904,1
1.0,-16.75,,,,1760267473.404888,1
1.0,-20.19,,,,1760267473.4407852,1
1.0,-25.064999999999998,,,,1760267473.4766827,1
1.0,-29.765,0.120416,35.43,,1760267473.5125802,1
1.0,-37.336666666666666,,,,1760267473.5484776,1
1.0,-46.115,,,,1760267473.584375,1
1.0,-51.815,,,,1760267473.6202724,1
1.0,-56.465,,,,1760267473.65617,1
1.0,-65.33333333333333,,,,1760267473.6920674,1
1.0,-77.85,,,,1760267473.7279646,1
1.0,-82.055,0.119135,35.43,,1760267473.7638621,1
1.0,-63.120000000000005,,,,1760267473.7997596,1
1.0,-23.925,,,,1760267473.8356571,1
1.0,6.12,,,,1760267473.8715544,1
1.0,28.320000000000004,,,,1760267473.9074519,1
1.0,39.385,,,,1760267473.9433494,1
1.0,43.45,,,,1760267473.9792469,1
1.0,45.47,0.122978,35.43,,1760267474.0151443,1
1.0,47.18333333333334,,,,1760267474.0510416,1
1.0,46.269999999999996,,,,1760267474.086939,1
1.0,41.315,,,,1760267474.1228366,1
1.0,33.92333333333333,,,,1760267474.158734,1
1.0,29.810000000000002,,,,1760267474.1946313,1
1.0,26.509999999999998,,,,1760267474.2305288,1
1.0,16.316666666666666,0.122978,35.45,,1760267474.2664263,1
1.0,1.635,,,,1760267474.3023238,1
1.0,-9.785,,,,1760267474.338221,1
1.0,-20.314999999999998,,,,1760267474.3741186,1
1.0,-37.05,,,,1760267474.410016,1
1.0,-59.56,,,,1760267474.4459136,1
1.0,-73.445,,,,1760267474.4818108,1
1.0,-64.80999999999999,0.122978,35.45,,1760267474.5177083,1
1.0,-30.62,,,,1760267474.5536058,1
1.0,-1.2399999999999998,,,,1760267474.5895033,1
1.0,20.15666666666667,,,,1760267474.6254005,1
1.0,30.155,,,,1760267474.661298,1
1.0,33.715,,,,1760267474.6971955,1
1.0,34.155,,,,1760267474.733093,1
1.0,31.096666666666664,0.121697,35.45,,1760267474.7689903,1
1.0,25.675,,,,1760267474.8048878,1
1.0,21.165,,,,1760267474.8407853,1
1.0,18.596666666666668,,,,1760267474.8766828,1
1.0,17.305,,,,1760267474.91258,1
1.0,12.170000000000002,,,,1760267474.9484775,1
1.0,1.3450000000000002,,,,1760267474.984375,1
1.0,-15.183333333333332,0.120416,35.45,,1760267475.0202725,1
1.0,-29.165,,,,1760267475.05617,1
1.0,-40.885000000000005,,,,1760267475.0920672,1
1.0,-63.49,,,,1760267475.1279647,1
1.0,-85.745,,,,1760267475.1638622,1
1.0,-85.41,,,,1760267475.1997597,1
1.0,-51.089999999999996,,,,1760267475.235657,1
1.0,-0.9750000000000005,0.124259,35.41,,1760267475.2715545,1
1.0,31.39,,,,1760267475.307452,1
1.0,50.870000000000005,,,,1760267475.3433495,1
1.0,63.083333333333336,,,,1760267475.3792467,1
1.0,67.445,,,,1760267475.4151442,1
1.0,65.4,,,,1760267475.4510417,1
1.0,60.73666666666666,,,,1760267475.4869392,1
1.0,57.41,0.122978,35.41,,1760267475.5228364,1
1.0,55.815,,,,1760267475.558734,1
1.0,54.47,,,,1760267475.5946314,1
1.0,51.36,,,,1760267475.630529,1
1.0,44.81,,,,1760267475.6664262,1
1.0,34.145,,,,1760267475.7023237,1
1.0,18.046666666666667,,,,1760267475.7382212,1
1.0,4.525,0.122978,35.41,,1760267475.7741187,1
1.0,-2.735,,,,1760267475.810016,1
1.0,-12.006666666666666,,,,1760267475.8459134,1
1.0,-25.905,,,,1760267475.881811,1
1.0,-39.775000000000006,,,,1760267475.9177084,1
1.0,-45.803333333333335,,,,1760267475.9536057,1
1.0,-23.11,,,,1760267475.9895031,1
1.0,16.07,0.121697,35.41,,1760267476.0254006,1
1.0,55.505,,,,1760267476.0612981,1
1.0,85.37,,,,1760267476.0971956,1
1.0,98.59,,,,1760267476.1330929,1
1.0,103.61,,,,1760267476.1689904,1
1.0,107.83999999999999,,,,1760267476.2048879,1
1.0,112.91999999999999,,,,1760267476.2407854,1
1.0,112.935,0.120416,35.43,,1760267476.2766826,1
1.0,95.66000000000001,,,,1760267476.31258,1
1.0,67.865,,,,1760267476.3484776,1
1.0,47.675,,,,1760267476.384375,1
1.0,27.599999999999998,,,,1760267476.4202724,1
1.0,-4.490000000000001,,,,1760267476.4561698,1
1.0,-38.785,,,,1760267476.4920673,1
1.0,-59.56,0.122978,35.43,,1760267476.5279648,1
1.0,-75.07666666666667,,,,1760267476.563862,1
1.0,-86.935,,,,1760267476.5997596,1
1.0,-95.71000000000001,,,,1760267476.635657,1
1.0,-101.925,,,,1760267476.6715546,1
1.0,-106.70333333333333,,,,1760267476.7074518,1
1.0,-113.62,,,,1760267476.7433493,1
1.0,-123.27,0.122978,35.43,,1760267476.7792468,1
1.0,-128.85,,,,1760267476.8151443,1
1.0,-106.82,,,,1760267476.8510416,1
1.0,-64.36500000000001,,,,1760267476.886939,1
1.0,-9.233333333333333,,,,1760267476.9228365,1
1.0,25.58,,,,1760267476.958734,1
1.0,37.379999999999995,,,,1760267476.9946315,1
1.0,41.5,0.121697,35.43,,1760267477.0305288,1
1.0,42.336666666666666,,,,1760267477.0664263,1
1.0,46.28,,,,1760267477.1023238,1
1.0,54.655,,,,1760267477.1382213,1
1.0,66.00666666666666,,,,1760267477.1741185,1
1.0,73.625,,,,1760267477.210016,1
1.0,76.255,,,,1760267477.2459135,1
1.0,72.14333333333333,0.121697,35.43,,1760267477.281811,1
1.0,58.905,,,,1760267477.3177083,1
1.0,45.275,,,,1760267477.3536057,1
1.0,33.295,,,,1760267477.3895032,1
1.0,18.203333333333333,,,,1760267477.4254007,1
1.0,-1.4249999999999998,,,,1760267477.461298,1
1.0,-17.85,,,,1760267477.4971955,1
1.0,-32.220000000000006,0.120416,35.43,,1760267477.533093,1
1.0,-43.375,,,,1760267477.5689905,1
1.0,-56.66,,,,1760267477.6048877,1
1.0,-77.81,,,,1760267477.6407852,1
1.0,-83.85,,,,1760267477.6766827,1
1.0,-60.37,,,,1760267477.7125802,1
1.0,-18.39,,,,1760267477.7484775,1
1.0,28.46666666666667,0.122978,35.43,,1760267477.784375,1
1.0,52.445,,,,1760267477.8202724,1
1.0,56.78,,,,1760267477.85617,1
1.0,53.02333333333333,,,,1760267477.8920672,1
1.0,47.265,,,,1760267477.9279647,1
1.0,44.11,,,,1760267477.9638622,1
1.0,40.93000000000001,,,,1760267477.9997597,1
1.0,36.52,0.12554,35.43,,1760267478.0356572,1
1.0,34.28,,,,1760267478.0715544,1
1.0,33.83,,,,1760267478.107452,1
1.0,29.296666666666667,,,,1760267478.1433494,1
1.0,17.965,,,,1760267478.179247,1
1.0,6.87,,,,1760267478.2151442,1
1.0,-4.86,0.121697,35.43,,1760267478.2510417,1
1.0,-17.455,,,,1760267478.2869391,1
1.0,-29.205,,,,1760267478.3228366,1
1.0,-38.895,,,,1760267478.358734,1
1.0,-46.88666666666666,,,,1760267478.3946314,1
1.0,-57.165000000000006,,,,1760267478.4305289,1
1.0,-71.31,,,,1760267478.4664264,1
1.0,-85.81333333333333,0.121697,35.43,,1760267478.5023236,1
1.0,-74.68,,,,1760267478.5382211,1
1.0,-39.735,,,,1760267478.5741186,1
1.0,8.823333333333332,,,,1760267478.610016,1
1.0,37.965,,,,1760267478.6459134,1
1.0,45.15,,,,1760267478.6818109,1
1.0,44.644999999999996,,,,1760267478.7177083,1
1.0,39.43666666666667,0.12554,35.43,,1760267478.7536058,1
1.0,35.2,,,,1760267478.789503,1
1.0,33.71,,,,1760267478.8254006,1
1.0,31.30333333333333,,,,1760267478.861298,1
1.0,28.810000000000002,,,,1760267478.8971956,1
1.0,28.545,,,,1760267478.9330928,1
1.0,27.52,,,,1760267478.9689903,1
1.0,20.395000000000003,0.12554,35.43,,1760267479.0048878,1
1.0,9.92,,,,1760267479.0407853,1
1.0,-0.31500000000000006,,,,1760267479.0766828,1
1.0,-9.53,,,,1760267479.11258,1
1.0,-18.225,,,,1760267479.1484776,1
1.0,-27.085,,,,1760267479.184375,1
1.0,-37.99333333333333,,,,1760267479.2202725,1
1.0,-46.525,0.124259,35.39,,1760267479.2561698,1
1.0,-54.09,,,,1760267479.2920673,1
1.0,-65.845,,,,1760267479.3279648,1
1.0,-82.89999999999999,,,,1760267479.3638623,1
1.0,-84.595,,,,1760267479.3997595,1
1.0,-60.129999999999995,,,,1760267479.435657,1
1.0,-9.973333333333334,,,,1760267479.4715545,1
1.0,31.15,0.122978,35.39,,1760267479.507452,1
1.0,47.045,,,,1760267479.5433493,1
1.0,50.97666666666667,,,,1760267479.5792468,1
1.0,44.905,,,,1760267479.6151443,1
1.0,37.84,,,,1760267479.6510417,1
1.0,33.815,,,,1760267479.686939,1
1.0,33.73,,,,1760267479.7228365,1
1.0,35.379999999999995,0.121697,35.39,,1760267479.758734,1
1.0,35.745000000000005,,,,1760267479.7946315,1
1.0,31.51,,,,1760267479.8305287,1
1.0,21.34,,,,1760267479.8664262,1
1.0,10.925,,,,1760267479.9023237,1
1.0,-1.92,,,,1760267479.9382212,1
1.0,-15.344999999999999,,,,1760267479.9741185,1
1.0,-26.135,0.124259,35.39,,1760267480.010016,1
1.0,-35.099999999999994,,,,1760267480.0459135,1
1.0,-44.123333333333335,,,,1760267480.081811,1
1.0,-55.655,,,,1760267480.1177084,1
1.0,-68.995,,,,1760267480.1536057,1
1.0,-78.5,,,,1760267480.1895032,1
1.0,-61.025,,,,1760267480.2254007,1
1.0,-25.18,0.124259,35.43,,1760267480.2612982,1
1.0,17.993333333333336,,,,1760267480.2971954,1
1.0,40.945,,,,1760267480.333093,1
1.0,44.69,,,,1760267480.3689904,1
1.0,41.165,,,,1760267480.404888,1
1.0,32.15,,,,1760267480.4407852,1
1.0,24.835,,,,1760267480.4766827,1
1.0,23.38,0.124259,35.43,,1760267480.5125802,1
1.0,24.743333333333336,,,,1760267480.5484776,1
1.0,24.645,,,,1760267480.584375,1
1.0,21.975,,,,1760267480.6202724,1
1.0,17.520000000000003,,,,1760267480.65617,1
1.0,8.886666666666667,,,,1760267480.6920674,1
1.0,-3.5,,,,1760267480.7279646,1
1.0,-15.174999999999999,0.121697,35.43,,1760267480.7638621,1
1.0,-28.14,,,,1760267480.7997596,1
1.0,-38.515,,,,1760267480.8356571,1
1.0,-48.09,,,,1760267480.8715544,1
1.0,-66.76333333333334,,,,1760267480.9074519,1
1.0,-84.38499999999999,,,,1760267480.9433494,1
1.0,-79.805,,,,1760267480.9792469,1
1.0,-50.28,0.121697,35.43,,1760267481.0151443,1
1.0,1.2100000000000009,,,,1760267481.0510416,1
1.0,38.075,,,,1760267481.086939,1
1.0,50.67,,,,1760267481.1228366,1
1.0,55.26666666666667,,,,1760267481.158734,1
1.0,54.3,,,,1760267481.1946313,1
1.0,51.36,,,,1760267481.2305288,1
1.0,47.18333333333334,0.124259,35.41,,1760267481.2664263,1
1.0,42.275,,,,1760267481.3023238,1
1.0,38.349999999999994,,,,1760267481.338221,1
1.0,36.19,,,,1760267481.3741186,1
1.0,33.449999999999996,,,,1760267481.410016,1
1.0,24.705,,,,1760267481.4459136,1
1.0,13.454999999999998,,,,1760267481.4818108,1
1.0,0.8766666666666666,0.12554,35.41,,1760267481.5177083,1
1.0,-10.215,,,,1760267481.5536058,1
1.0,-21.625,,,,1760267481.5895033,1
1.0,-37.306666666666665,,,,1760267481.6254005,1
1.0,-48.53,,,,1760267481.661298,1
1.0,-55.69,,,,1760267481.6971955,1
1.0,-67.31,,,,1760267481.733093,1
1.0,-87.63,0.12554,35.41,,1760267481.7689903,1
1.0,-95.485,,,,1760267481.8048878,1
1.0,-74.20500000000001,,,,1760267481.8407853,1
1.0,-20.62666666666667,,,,1760267481.8766828,1
1.0,27.1,,,,1760267481.91258,1
1.0,46.105000000000004,,,,1760267481.9484775,1
1.0,53.555,,,,1760267481.984375,1
1.0,55.51666666666667,0.122978,35.41,,1760267482.0202725,1
1.0,53.64,,,,1760267482.05617,1
1.0,50.995000000000005,,,,1760267482.0920672,1
1.0,47.60333333333333,,,,1760267482.1279647,1
1.0,45.165,,,,1760267482.1638622,1
1.0,44.96,,,,1760267482.1997597,1
1.0,44.806666666666665,,,,1760267482.235657,1
1.0,41.015,0.122978,35.39,,1760267482.2715545,1
1.0,33.545,,,,1760267482.307452,1
1.0,23.560000000000002,,,,1760267482.3433495,1
1.0,12.219999999999999,,,,1760267482.3792467,1
1.0,3.515,,,,1760267482.4151442,1
1.0,-3.805,,,,1760267482.4510417,1
1.0,-14.096666666666666,,,,1760267482.4869392,1
1.0,-22.119999999999997,0.126821,35.39,,1760267482.5228364,1
1.0,-26.695,,,,1760267482.558734,1
1.0,-35.72,,,,1760267482.5946314,1
1.0,-48.535,,,,1760267482.630529,1
1.0,-56.825,,,,1760267482.6664262,1
1.0,-62.205,,,,1760267482.7023237,1
1.0,-72.52,,,,1760267482.7382212,1
1.0,-90.36000000000001,0.12554,35.39,,1760267482.7741187,1
1.0,-101.53,,,,1760267482.810016,1
1.0,-86.41666666666667,,,,1760267482.8459134,1
1.0,-37.72,,,,1760267482.881811,1
1.0,6.33,,,,1760267482.9177084,1
1.0,38.27,,,,1760267482.9536057,1
1.0,50.155,,,,1760267482.9895031,1
1.0,52.945,0.122978,35.39,,1760267483.0254006,1
1.0,52.215,,,,1760267483.0612981,1
1.0,48.873333333333335,,,,1760267483.0971956,1
1.0,46.92,,,,1760267483.1330929,1
1.0,45.95,,,,1760267483.1689904,1
1.0,44.95333333333334,,,,1760267483.2048879,1
1.0,45.165,,,,1760267483.2407854,1
1.0,43.155,0.122978,35.39,,1760267483.2766826,1
1.0,34.00666666666667,,,,1760267483.31258,1
1.0,23.009999999999998,,,,1760267483.3484776,1
1.0,16.365,,,,1760267483.384375,1
1.0,9.575,,,,1760267483.4202724,1
1.0,-1.0633333333333335,,,,1760267483.4561698,1
1.0,-9.965,,,,1760267483.4920673,1
1.0,-15.134999999999998,0.124259,35.39,,1760267483.5279648,1
1.0,-24.043333333333333,,,,1760267483.563862,1
1.0,-35.145,,,,1760267483.5997596,1
1.0,-42.485,,,,1760267483.635657,1
1.0,-48.265,,,,1760267483.6715546,1
1.0,-58.79333333333333,,,,1760267483.7074518,1
1.0,-75.62,,,,1760267483.7433493,1
1.0,-84.155,0.12554,35.39,,1760267483.7792468,1
1.0,-64.33666666666666,,,,1760267483.8151443,1
1.0,-16.675,,,,1760267483.8510416,1
1.0,20.025,,,,1760267483.886939,1
1.0,42.85666666666666,,,,1760267483.9228365,1
1.0,48.825,,,,1760267483.958734,1
1.0,47.8,,,,1760267483.9946315,1
1.0,44.790000000000006,0.12554,35.39,,1760267484.0305288,1
1.0,41.26,,,,1760267484.0664263,1
1.0,39.155,,,,1760267484.1023238,1
1.0,38.16,,,,1760267484.1382213,1
1.0,38.09,,,,1760267484.1741185,1
1.0,38.08,,,,1760267484.210016,1
1.0,35.349999999999994,,,,1760267484.2459135,1
1.0,27.203333333333333,0.124259,35.39,,1760267484.281811,1
1.0,16.895,,,,1760267484.3177083,1
1.0,9.43,,,,1760267484.3536057,1
1.0,3.61,,,,1760267484.3895032,1
1.0,-2.7266666666666666,,,,1760267484.4254007,1
1.0,-10.375,,,,1760267484.461298,1
1.0,-17.215,,,,1760267484.4971955,1
1.0,-23.546666666666667,0.122978,35.39,,1760267484.533093,1
1.0,-28.555,,,,1760267484.5689905,1
1.0,-36.67,,,,1760267484.6048877,1
1.0,-55.10333333333333,,,,1760267484.6407852,1
1.0,-67.89,,,,1760267484.6766827,1
1.0,-55.175,,,,1760267484.7125802,1
1.0,-20.0,,,,1760267484.7484775,1
1.0,29.116666666666664,0.126821,35.39,,1760267484.784375,1
1.0,58.08,,,,1760267484.8202724,1
1.0,64.18,,,,1760267484.85617,1
1.0,61.35666666666666,,,,1760267484.8920672,1
1.0,52.96,,,,1760267484.9279647,1
1.0,44.445,,,,1760267484.9638622,1
1.0,36.97,,,,1760267484.9997597,1
1.0,29.406666666666666,0.128102,35.39,,1760267485.0356572,1
1.0,22.15,,,,1760267485.0715544,1
1.0,16.97,,,,1760267485.107452,1
1.0,11.266666666666666,,,,1760267485.1433494,1
1.0,3.145,,,,1760267485.179247,1
1.0,-6.529999999999999,,,,1760267485.2151442,1
1.0,-17.44333333333333,0.12554,35.39,,1760267485.2510417,1
1.0,-22.765,,,,1760267485.2869391,1
1.0,-25.775,,,,1760267485.3228366,1
1.0,-32.6,,,,1760267485.358734,1
1.0,-43.120000000000005,,,,1760267485.3946314,1
1.0,-47.035,,,,1760267485.4305289,1
1.0,-46.379999999999995,,,,1760267485.4664264,1
1.0,-52.843333333333334,0.124259,35.39,,1760267485.5023236,1
1.0,-65.795,,,,1760267485.5382211,1
1.0,-66.5,,,,1760267485.5741186,1
1.0,-35.75666666666667,,,,1760267485.610016,1
1.0,17.095,,,,1760267485.6459134,1
1.0,53.675,,,,1760267485.6818109,1
1.0,75.765,,,,1760267485.7177083,1
1.0,97.28000000000002,0.122978,35.39,,1760267485.7536058,1
1.0,115.935,,,,1760267485.789503,1
1.0,112.325,,,,1760267485.8254006,1
1.0,84.63000000000001,,,,1760267485.861298,1
1.0,58.79,,,,1760267485.8971956,1
1.0,44.095,,,,1760267485.9330928,1
1.0,21.830000000000002,,,,1760267485.9689903,1
1.0,-1.2600000000000002,0.126821,35.39,,1760267486.0048878,1
1.0,-16.215,,,,1760267486.0407853,1
1.0,-30.295,,,,1760267486.0766828,1
1.0,-47.88333333333333,,,,1760267486.11258,1
1.0,-63.03,,,,1760267486.1484776,1
1.0,-73.4,,,,1760267486.184375,1
1.0,-87.08,,,,1760267486.2202725,1
1.0,-98.58500000000001,0.128102,35.39,,1760267486.2561698,1
1.0,-100.845,,,,1760267486.2920673,1
1.0,-98.25,,,,1760267486.3279648,1
1.0,-98.62333333333333,,,,1760267486.3638623,1
1.0,-108.35,,,,1760267486.3997595,1
1.0,-120.35499999999999,,,,1760267486.435657,1
1.0,-123.08,,,,1760267486.4715545,1
1.0,-95.0,0.124259,35.39,,1760267486.507452,1
1.0,-51.25,,,,1760267486.5433493,1
1.0,-0.8399999999999999,,,,1760267486.5792468,1
1.0,29.020000000000003,,,,1760267486.6151443,1
1.0,39.21,,,,1760267486.6510417,1
1.0,42.95,,,,1760267486.686939,1
1.0,43.68333333333333,,,,1760267486.7228365,1
1.0,43.894999999999996,0.12554,35.39,,1760267486.758734,1
1.0,44.28,,,,1760267486.7946315,1
1.0,45.22666666666667,,,,1760267486.8305287,1
1.0,45.644999999999996,,,,1760267486.8664262,1
1.0,43.260000000000005,,,,1760267486.9023237,1
1.0,34.906666666666666,,,,1760267486.9382212,1
1.0,22.925,,,,1760267486.9741185,1
1.0,13.095,0.128102,35.39,,1760267487.010016,1
1.0,3.165,,,,1760267487.0459135,1
1.0,-12.13,,,,1760267487.081811,1
1.0,-27.645,,,,1760267487.1177084,1
1.0,-35.945,,,,1760267487.1536057,1
1.0,-45.46333333333334,,,,1760267487.1895032,1
1.0,-62.05500000000001,,,,1760267487.2254007,1
1.0,-77.055,0.12554,35.37,,1760267487.2612982,1
1.0,-73.83,,,,1760267487.2971954,1
1.0,-37.14,,,,1760267487.333093,1
1.0,3.76,,,,1760267487.3689904,1
1.0,35.285,,,,1760267487.404888,1
1.0,55.07,,,,1760267487.4407852,1
1.0,61.28,,,,1760267487.4766827,1
1.0,59.370000000000005,0.126821,35.37,,1760267487.5125802,1
1.0,54.419999999999995,,,,1760267487.5484776,1
1.0,51.78,,,,1760267487.584375,1
1.0,52.114999999999995,,,,1760267487.6202724,1
1.0,53.305,,,,1760267487.65617,1
1.0,54.54333333333333,,,,1760267487.6920674,1
1.0,53.56,,,,1760267487.7279646,1
1.0,48.67,0.12554,35.37,,1760267487.7638621,1
1.0,37.77,,,,1760267487.7997596,1
1.0,26.335,,,,1760267487.8356571,1
1.0,17.955,,,,1760267487.8715544,1
1.0,5.463333333333334,,,,1760267487.9074519,1
1.0,-7.875,,,,1760267487.9433494,1
1.0,-15.829999999999998,,,,1760267487.9792469,1
1.0,-22.520000000000003,0.124259,35.37,,1760267488.0151443,1
1.0,-34.11333333333334,,,,1760267488.0510416,1
1.0,-47.55,,,,1760267488.086939,1
1.0,-56.29,,,,1760267488.1228366,1
1.0,-66.57333333333334,,,,1760267488.158734,1
1.0,-82.57,,,,1760267488.1946313,1
1.0,-98.78999999999999,,,,1760267488.2305288,1
1.0,-99.90666666666665,0.126821,35.39,,1760267488.2664263,1
1.0,-64.25,,,,1760267488.3023238,1
1.0,-19.54,,,,1760267488.338221,1
1.0,16.34,,,,1760267488.3741186,1
1.0,38.82333333333333,,,,1760267488.410016,1
1.0,47.765,,,,1760267488.4459136,1
1.0,50.09,,,,1760267488.4818108,1
1.0,51.276666666666664,0.128102,35.39,,1760267488.5177083,1
1.0,54.22,,,,1760267488.5536058,1
1.0,57.81999999999999,,,,1760267488.5895033,1
1.0,61.083333333333336,,,,1760267488.6254005,1
1.0,63.504999999999995,,,,1760267488.661298,1
1.0,63.48,,,,1760267488.6971955,1
1.0,58.415,,,,1760267488.733093,1
1.0,46.31,0.12554,35.39,,1760267488.7689903,1
1.0,33.72,,,,1760267488.8048878,1
1.0,23.740000000000002,,,,1760267488.8407853,1
1.0,10.293333333333331,,,,1760267488.8766828,1
1.0,-1.845,,,,1760267488.91258,1
1.0,-10.07,,,,1760267488.9484775,1
1.0,-19.11,,,,1760267488.984375,1
1.0,-31.686666666666667,0.124259,35.39,,1760267489.0202725,1
1.0,-41.54,,,,1760267489.05617,1
1.0,-47.015,,,,1760267489.0920672,1
1.0,-57.97666666666667,,,,1760267489.1279647,1
1.0,-75.885,,,,1760267489.1638622,1
1.0,-84.97999999999999,,,,1760267489.1997597,1
1.0,-63.606666666666676,,,,1760267489.235657,1
1.0,-10.975,0.12554,35.34,,1760267489.2715545,1
1.0,30.08,,,,1760267489.307452,1
1.0,53.415,,,,1760267489.3433495,1
1.0,65.43333333333334,,,,1760267489.3792467,1
1.0,73.85,,,,1760267489.4151442,1
1.0,80.42500000000001,,,,1760267489.4510417,1
1.0,86.32666666666667,,,,1760267489.4869392,1
1.0,85.08500000000001,0.128102,35.34,,1760267489.5228364,1
1.0,77.705,,,,1760267489.558734,1
1.0,66.08,,,,1760267489.5946314,1
1.0,50.67,,,,1760267489.630529,1
1.0,31.854999999999997,,,,1760267489.6664262,1
1.0,9.905,,,,1760267489.7023237,1
1.0,-13.99,,,,1760267489.7382212,1
1.0,-30.605,0.128102,35.34,,1760267489.7741187,1
1.0,-39.24,,,,1760267489.810016,1
1.0,-47.17666666666667,,,,1760267489.8459134,1
1.0,-52.315,,,,1760267489.881811,1
1.0,-54.375,,,,1760267489.9177084,1
1.0,-57.93666666666667,,,,1760267489.9536057,1
1.0,-63.67,,,,1760267489.9895031,1
1.0,-67.8,0.128102,35.34,,1760267490.0254006,1
1.0,-71.46,,,,1760267490.0612981,1
1.0,-81.91000000000001,,,,1760267490.0971956,1
1.0,-99.83500000000001,,,,1760267490.1330929,1
1.0,-106.155,,,,1760267490.1689904,1
1.0,-78.69333333333333,,,,1760267490.2048879,1
1.0,-25.13,,,,1760267490.2407854,1
1.0,12.855,0.126821,35.37,,1760267490.2766826,1
1.0,39.940000000000005,,,,1760267490.31258,1
1.0,55.375,,,,1760267490.3484776,1
1.0,62.295,,,,1760267490.384375,1
1.0,64.695,,,,1760267490.4202724,1
1.0,64.52,,,,1760267490.4561698,1
1.0,64.125,,,,1760267490.4920673,1
1.0,63.88,0.12554,35.37,,1760267490.5279648,1
1.0,63.59,,,,1760267490.563862,1
1.0,62.53,,,,1760267490.5997596,1
1.0,58.519999999999996,,,,1760267490.635657,1
1.0,50.39,,,,1760267490.6715546,1
1.0,38.29666666666666,,,,1760267490.7074518,1
1.0,28.905,,,,1760267490.7433493,1
1.0,22.564999999999998,0.128102,35.37,,1760267490.7792468,1
1.0,13.016666666666666,,,,1760267490.8151443,1
1.0,4.38,,,,1760267490.8510416,1
1.0,0.32999999999999996,,,,1760267490.886939,1
1.0,-5.773333333333333,,,,1760267490.9228365,1
1.0,-17.205,,,,1760267490.958734,1
1.0,-27.505,,,,1760267490.9946315,1
1.0,-34.785,0.128102,35.37,,1760267491.0305288,1
1.0,-41.78666666666667,,,,1760267491.0664263,1
1.0,-52.105000000000004,,,,1760267491.1023238,1
1.0,-60.55,,,,1760267491.1382213,1
1.0,-51.55666666666667,,,,1760267491.1741185,1
1.0,-14.115,,,,1760267491.210016,1
1.0,20.755,,,,1760267491.2459135,1
1.0,41.083333333333336,0.126821,35.33,,1760267491.281811,1
1.0,39.965,,,,1760267491.3177083,1
1.0,31.4,,,,1760267491.3536057,1
1.0,20.27,,,,1760267491.3895032,1
1.0,7.863333333333333,,,,1760267491.4254007,1
1.0,1.5499999999999998,,,,1760267491.461298,1
1.0,1.44,,,,1760267491.4971955,1
1.0,5.586666666666666,0.12554,35.33,,1760267491.533093,1
1.0,12.2,,,,1760267491.5689905,1
1.0,16.085,,,,1760267491.6048877,1
1.0,14.956666666666665,,,,1760267491.6407852,1
1.0,9.57,,,,1760267491.6766827,1
1.0,5.6,,,,1760267491.7125802,1
1.0,3.5,,,,1760267491.7484775,1
1.0,0.4100000000000001,0.128102,35.33,,1760267491.784375,1
1.0,-6.720000000000001,,,,1760267491.8202724,1
1.0,-13.585,,,,1760267491.85617,1
1.0,-18.87666666666667,,,,1760267491.8920672,1
1.0,-24.02,,,,1760267491.9279647,1
1.0,-31.39,,,,1760267491.9638622,1
1.0,-39.925,,,,1760267491.9997597,1
1.0,-48.21666666666666,0.129383,35.33,,1760267492.0356572,1
1.0,-55.815,,,,1760267492.0715544,1
1.0,-66.72999999999999,,,,1760267492.107452,1
1.0,-86.12,,,,1760267492.1433494,1
1.0,-91.94999999999999,,,,1760267492.179247,1
1.0,-69.44,,,,1760267492.2151442,1
1.0,-18.463333333333335,0.129383,35.34,,1760267492.2510417,1
1.0,25.085,,,,1760267492.2869391,1
1.0,42.025,,,,1760267492.3228366,1
1.0,48.275,,,,1760267492.358734,1
1.0,50.669999999999995,,,,1760267492.3946314,1
1.0,50.59,,,,1760267492.4305289,1
1.0,48.79,,,,1760267492.4664264,1
1.0,46.656666666666666,0.126821,35.34,,1760267492.5023236,1
1.0,45.980000000000004,,,,1760267492.5382211,1
1.0,46.365,,,,1760267492.5741186,1
1.0,46.69,,,,1760267492.610016,1
1.0,43.725,,,,1760267492.6459134,1
1.0,37.46,,,,1760267492.6818109,1
1.0,30.07,,,,1760267492.7177083,1
1.0,21.709999999999997,0.12554,35.34,,1760267492.7536058,1
1.0,12.945,,,,1760267492.789503,1
1.0,6.07,,,,1760267492.8254006,1
1.0,-0.66,,,,1760267492.861298,1
1.0,-4.86,,,,1760267492.8971956,1
1.0,-2.735,,,,1760267492.9330928,1
1.0,5.713333333333334,,,,1760267492.9689903,1
1.0,9.55,0.129383,35.34,,1760267493.0048878,1
1.0,2.2,,,,1760267493.0407853,1
1.0,-17.51,,,,1760267493.0766828,1
1.0,-54.25666666666666,,,,1760267493.11258,1
1.0,-78.525,,,,1760267493.1484776,1
1.0,-71.97,,,,1760267493.184375,1
1.0,-42.76,,,,1760267493.2202725,1
1.0,-14.719999999999999,0.129383,35.34,,1760267493.2561698,1
1.0,-1.0099999999999998,,,,1760267493.2920673,1
1.0,6.335,,,,1760267493.3279648,1
1.0,9.663333333333334,,,,1760267493.3638623,1
1.0,10.274999999999999,,,,1760267493.3997595,1
1.0,11.375,,,,1760267493.435657,1
1.0,15.08,,,,1760267493.4715545,1
1.0,20.015,0.128102,35.34,,1760267493.507452,1
1.0,23.605,,,,1760267493.5433493,1
1.0,25.126666666666665,,,,1760267493.5792468,1
1.0,21.88,,,,1760267493.6151443,1
1.0,16.375,,,,1760267493.6510417,1
1.0,10.89,,,,1760267493.686939,1
1.0,5.41,,,,1760267493.7228365,1
1.0,-1.865,0.126821,35.34,,1760267493.758734,1
1.0,-10.190000000000001,,,,1760267493.7946315,1
1.0,-18.81,,,,1760267493.8305287,1
1.0,-25.27,,,,1760267493.8664262,1
1.0,-32.315,,,,1760267493.9023237,1
1.0,-42.35333333333333,,,,1760267493.9382212,1
1.0,-50.015,,,,1760267493.9741185,1
1.0,-56.23,0.126821,35.34,,1760267494.010016,1
1.0,-66.37,,,,1760267494.0459135,1
1.0,-81.47333333333334,,,,1760267494.081811,1
1.0,-81.715,,,,1760267494.1177084,1
1.0,-57.26,,,,1760267494.1536057,1
1.0,-8.663333333333334,,,,1760267494.1895032,1
1.0,30.275,,,,1760267494.2254007,1
1.0,44.59,0.129383,35.33,,1760267494.2612982,1
1.0,49.79,,,,1760267494.2971954,1
1.0,50.2,,,,1760267494.333093,1
1.0,49.79,,,,1760267494.3689904,1
1.0,49.91,,,,1760267494.404888,1
1.0,49.68,,,,1760267494.4407852,1
1.0,47.995000000000005,,,,1760267494.4766827,1
1.0,47.195,0.130664,35.33,,1760267494.5125802,1
1.0,48.60333333333333,,,,1760267494.5484776,1
1.0,47.735,,,,1760267494.584375,1
1.0,41.67,,,,1760267494.6202724,1
1.0,33.735,,,,1760267494.65617,1
1.0,27.686666666666667,,,,1760267494.6920674,1
1.0,23.96,,,,1760267494.7279646,1
1.0,16.585,0.129383,35.33,,1760267494.7638621,1
1.0,-2.3233333333333337,,,,1760267494.7997596,1
1.0,-23.985,,,,1760267494.8356571,1
1.0,-36.0,,,,1760267494.8715544,1
1.0,-44.38666666666666,,,,1760267494.9074519,1
1.0,-50.325,,,,1760267494.9433494,1
1.0,-53.629999999999995,,,,1760267494.9792469,1
1.0,-57.385000000000005,0.128102,35.33,,1760267495.0151443,1
1.0,-67.89333333333333,,,,1760267495.0510416,1
1.0,-82.39,,,,1760267495.086939,1
1.0,-87.985,,,,1760267495.1228366,1
1.0,-71.49,,,,1760267495.158734,1
1.0,-30.52,,,,1760267495.1946313,1
1.0,6.465,,,,1760267495.2305288,1
1.0,35.80666666666667,0.129383,35.34,,1760267495.2664263,1
1.0,47.894999999999996,,,,1760267495.3023238,1
1.0,50.68,,,,1760267495.338221,1
1.0,51.585,,,,1760267495.3741186,1
1.0,52.96333333333333,,,,1760267495.410016,1
1.0,54.475,,,,1760267495.4459136,1
1.0,54.1,,,,1760267495.4818108,1
1.0,52.20333333333334,0.130664,35.34,,1760267495.5177083,1
1.0,49.275,,,,1760267495.5536058,1
1.0,44.055,,,,1760267495.5895033,1
1.0,32.42,,,,1760267495.6254005,1
1.0,18.255,,,,1760267495.661298,1
1.0,8.015,,,,1760267495.6971955,1
1.0,-1.105,,,,1760267495.733093,1
1.0,-12.866666666666665,0.130664,35.34,,1760267495.7689903,1
1.0,-23.045,,,,1760267495.8048878,1
1.0,-28.965,,,,1760267495.8407853,1
1.0,-37.06,,,,1760267495.8766828,1
1.0,-45.26,,,,1760267495.91258,1
1.0,-50.175,,,,1760267495.9484775,1
1.0,-55.845,,,,1760267495.984375,1
1.0,-68.02666666666667,0.129383,35.34,,1760267496.0202725,1
1.0,-82.495,,,,1760267496.05617,1
1.0,-84.91,,,,1760267496.0920672,1
1.0,-59.086666666666666,,,,1760267496.1279647,1
1.0,-12.629999999999999,,,,1760267496.1638622,1
1.0,18.805,,,,1760267496.1997597,1
1.0,36.656666666666666,,,,1760267496.235657,1
1.0,42.155,0.128102,35.33,,1760267496.2715545,1
1.0,42.980000000000004,,,,1760267496.307452,1
1.0,41.644999999999996,,,,1760267496.3433495,1
1.0,38.833333333333336,,,,1760267496.3792467,1
1.0,36.935,,,,1760267496.4151442,1
1.0,36.095,,,,1760267496.4510417,1
1.0,35.36333333333333,,,,1760267496.4869392,1
1.0,33.92,0.126821,35.33,,1760267496.5228364,1
1.0,30.605,,,,1760267496.558734,1
1.0,23.276666666666667,,,,1760267496.5946314,1
1.0,14.555,,,,1760267496.630529,1
1.0,7.665,,,,1760267496.6664262,1
1.0,1.035,,,,1760267496.7023237,1
1.0,-7.206666666666666,,,,1760267496.7382212,1
1.0,-16.05,0.130664,35.33,,1760267496.7741187,1
1.0,-23.86,,,,1760267496.810016,1
1.0,-33.45666666666667,,,,1760267496.8459134,1
1.0,-41.68,,,,1760267496.881811,1
1.0,-49.285,,,,1760267496.9177084,1
1.0,-64.97000000000001,,,,1760267496.9536057,1
1.0,-79.285,,,,1760267496.9895031,1
1.0,-73.63,0.131945,35.33,,1760267497.0254006,1
1.0,-46.315,,,,1760267497.0612981,1
1.0,0.543333333333333,,,,1760267497.0971956,1
1.0,34.47,,,,1760267497.1330929,1
1.0,45.709999999999994,,,,1760267497.1689904,1
1.0,49.413333333333334,,,,1760267497.2048879,1
1.0,48.94,,,,1760267497.2407854,1
1.0,47.425,0.130664,35.33,,1760267497.2766826,1
1.0,45.883333333333326,,,,1760267497.31258,1
1.0,44.120000000000005,,,,1760267497.3484776,1
1.0,42.12,,,,1760267497.384375,1
1.0,39.89,,,,1760267497.4202724,1
1.0,36.12,,,,1760267497.4561698,1
1.0,28.845,,,,1760267497.4920673,1
1.0,19.1,0.129383,35.33,,1760267497.5279648,1
1.0,6.25,,,,1760267497.563862,1
1.0,-3.245,,,,1760267497.5997596,1
1.0,-9.92,,,,1760267497.635657,1
1.0,-18.525,,,,1760267497.6715546,1
1.0,-30.87,,,,1760267497.7074518,1
1.0,-41.245000000000005,,,,1760267497.7433493,1
1.0,-47.75,0.128102,35.33,,1760267497.7792468,1
1.0,-58.78666666666667,,,,1760267497.8151443,1
1.0,-74.075,,,,1760267497.8510416,1
1.0,-80.235,,,,1760267497.886939,1
1.0,-61.47,,,,1760267497.9228365,1
1.0,-19.17,,,,1760267497.958734,1
1.0,15.360000000000001,,,,1760267497.9946315,1
1.0,38.57,0.130664,35.33,,1760267498.0305288,1
1.0,52.43666666666667,,,,1760267498.0664263,1
1.0,56.255,,,,1760267498.1023238,1
1.0,54.144999999999996,,,,1760267498.1382213,1
1.0,53.129999999999995,,,,1760267498.1741185,1
1.0,57.585,,,,1760267498.210016,1
1.0,61.7,,,,1760267498.2459135,1
1.0,63.77333333333333,0.131945,35.33,,1760267498.281811,1
1.0,65.595,,,,1760267498.3177083,1
1.0,69.745,,,,1760267498.3536057,1
1.0,73.35499999999999,,,,1760267498.3895032,1
1.0,60.24,,,,1760267498.4254007,1
1.0,22.265,,,,1760267498.461298,1
1.0,-15.040000000000001,,,,1760267498.4971955,1
1.0,-53.473333333333336,0.129383,35.33,,1760267498.533093,1
1.0,-85.55,,,,1760267498.5689905,1
1.0,-107.625,,,,1760267498.6048877,1
1.0,-125.28000000000002,,,,1760267498.6407852,1
1.0,-125.655,,,,1760267498.6766827,1
1.0,-107.745,,,,1760267498.7125802,1
1.0,-78.105,,,,1760267498.7484775,1
1.0,-42.6,0.128102,35.33,,1760267498.784375,1
1.0,-20.9,,,,1760267498.8202724,1
1.0,-12.015,,,,1760267498.85617,1
1.0,-4.3133333333333335,,,,1760267498.8920672,1
1.0,1.0150000000000001,,,,1760267498.9279647,1
1.0,4.66,,,,1760267498.9638622,1
1.0,10.01,,,,1760267498.9997597,1
1.0,18.266666666666666,0.130664,35.33,,1760267499.0356572,1
1.0,23.795,,,,1760267499.0715544,1
1.0,23.875,,,,1760267499.107452,1
1.0,18.599999999999998,,,,1760267499.1433494,1
1.0,8.425,,,,1760267499.179247,1
1.0,-2.56,,,,1760267499.2151442,1
1.0,-16.123333333333335,0.131945,35.31,,1760267499.2510417,1
1.0,-27.53,,,,1760267499.2869391,1
1.0,-37.505,,,,1760267499.3228366,1
1.0,-52.125,,,,1760267499.358734,1
1.0,-75.08999999999999,,,,1760267499.3946314,1
1.0,-86.17500000000001,,,,1760267499.4305289,1
1.0,-69.45,,,,1760267499.4664264,1
1.0,-21.52,0.130664,35.31,,1760267499.5023236,1
1.0,25.515,,,,1760267499.5382211,1
1.0,48.535,,,,1760267499.5741186,1
1.0,64.19333333333333,,,,1760267499.610016,1
1.0,73.16999999999999,,,,1760267499.6459134,1
1.0,75.07,,,,1760267499.6818109,1
1.0,73.89500000000001,,,,1760267499.7177083,1
1.0,73.57666666666667,0.129383,35.31,,1760267499.7536058,1
1.0,75.545,,,,1760267499.789503,1
1.0,76.6,,,,1760267499.8254006,1
1.0,76.30333333333333,,,,1760267499.861298,1
1.0,74.755,,,,1760267499.8971956,1
1.0,71.06,,,,1760267499.9330928,1
1.0,60.629999999999995,,,,1760267499.9689903,1
1.0,45.364999999999995,0.129383,35.31,,1760267500.0048878,1
1.0,34.945,,,,1760267500.0407853,1
1.0,33.245,,,,1760267500.0766828,1
1.0,39.77666666666667,,,,1760267500.11258,1
1.0,30.665,,,,1760267500.1484776,1
1.0,-0.8899999999999997,,,,1760267500.184375,1
1.0,-48.14333333333334,,,,1760267500.2202725,1
1.0,-80.435,0.131945,35.33,,1760267500.2561698,1
1.0,-96.83500000000001,,,,1760267500.2920673,1
1.0,-114.535,,,,1760267500.3279648,1
1.0,-138.51666666666668,,,,1760267500.3638623,1
1.0,-147.57,,,,1760267500.3997595,1
1.0,-126.85,,,,1760267500.435657,1
1.0,-70.46666666666667,,,,1760267500.4715545,1
1.0,-14.525,0.131945,35.33,,1760267500.507452,1
1.0,12.235000000000001,,,,1760267500.5433493,1
1.0,30.75666666666667,,,,1760267500.5792468,1
1.0,45.55,,,,1760267500.6151443,1
1.0,53.7,,,,1760267500.6510417,1
1.0,57.295,,,,1760267500.686939,1
1.0,58.75,,,,1760267500.7228365,1
1.0,60.239999999999995,0.131945,35.33,,1760267500.758734,1
1.0,62.315,,,,1760267500.7946315,1
1.0,64.52333333333333,,,,1760267500.8305287,1
1.0,62.185,,,,1760267500.8664262,1
1.0,54.91,,,,1760267500.9023237,1
1.0,42.77333333333333,,,,1760267500.9382212,1
1.0,32.06,,,,1760267500.9741185,1
1.0,24.295,0.130664,35.33,,1760267501.010016,1
1.0,14.530000000000001,,,,1760267501.0459135,1
1.0,0.4400000000000001,,,,1760267501.081811,1
1.0,-11.11,,,,1760267501.1177084,1
1.0,-18.92,,,,1760267501.1536057,1
1.0,-31.01666666666667,,,,1760267501.1895032,1
1.0,-43.83,,,,1760267501.2254007,1
1.0,-51.91,0.129383,35.31,,1760267501.2612982,1
1.0,-60.673333333333325,,,,1760267501.2971954,1
1.0,-72.99000000000001,,,,1760267501.333093,1
1.0,-86.58500000000001,,,,1760267501.3689904,1
1.0,-96.075,,,,1760267501.404888,1
1.0,-82.88,,,,1760267501.4407852,1
1.0,-40.4,,,,1760267501.4766827,1
1.0,0.019999999999999574,0.131945,35.31,,1760267501.5125802,1
1.0,32.379999999999995,,,,1760267501.5484776,1
1.0,45.69,,,,1760267501.584375,1
1.0,49.254999999999995,,,,1760267501.6202724,1
1.0,50.57,,,,1760267501.65617,1
1.0,50.78,,,,1760267501.6920674,1
1.0,50.1,,,,1760267501.7279646,1
1.0,47.745,0.134507,35.31,,1760267501.7638621,1
1.0,43.99333333333334,,,,1760267501.7997596,1
1.0,42.78,,,,1760267501.8356571,1
1.0,42.715,,,,1760267501.8715544,1
1.0,38.50333333333333,,,,1760267501.9074519,1
1.0,29.645,,,,1760267501.9433494,1
1.0,21.905,,,,1760267501.9792469,1
1.0,15.719999999999999,0.133226,35.31,,1760267502.0151443,1
1.0,8.726666666666667,,,,1760267502.0510416,1
1.0,0.08499999999999996,,,,1760267502.086939,1
1.0,-7.005,,,,1760267502.1228366,1
1.0,-13.843333333333334,,,,1760267502.158734,1
1.0,-20.425,,,,1760267502.1946313,1
1.0,-27.14,,,,1760267502.2305288,1
1.0,-36.31333333333333,0.130664,35.33,,1760267502.2664263,1
1.0,-43.735,,,,1760267502.3023238,1
1.0,-48.975,,,,1760267502.338221,1
1.0,-57.425,,,,1760267502.3741186,1
1.0,-70.98333333333333,,,,1760267502.410016,1
1.0,-72.28999999999999,,,,1760267502.4459136,1
1.0,-51.865,,,,1760267502.4818108,1
1.0,-8.256666666666666,0.129383,35.33,,1760267502.5177083,1
1.0,28.815,,,,1760267502.5536058,1
1.0,42.2,,,,1760267502.5895033,1
1.0,44.879999999999995,,,,1760267502.6254005,1
1.0,42.14,,,,1760267502.661298,1
1.0,39.1,,,,1760267502.6971955,1
1.0,36.945,,,,1760267502.733093,1
1.0,34.96,0.131945,35.33,,1760267502.7689903,1
1.0,32.915000000000006,,,,1760267502.8048878,1
1.0,32.3,,,,1760267502.8407853,1
1.0,31.929999999999996,,,,1760267502.8766828,1
1.0,27.875,,,,1760267502.91258,1
1.0,20.85,,,,1760267502.9484775,1
1.0,12.785,,,,1760267502.984375,1
1.0,3.346666666666667,0.133226,35.33,,1760267503.0202725,1
1.0,-4.865,,,,1760267503.05617,1
1.0,-10.184999999999999,,,,1760267503.0920672,1
1.0,-16.83,,,,1760267503.1279647,1
1.0,-25.17,,,,1760267503.1638622,1
1.0,-32.64,,,,1760267503.1997597,1
1.0,-41.06333333333333,,,,1760267503.235657,1
1.0,-48.760000000000005,0.147318,35.31,,1760267503.2715545,1
1.0,-56.715,,,,1760267503.307452,1
1.0,-66.41,,,,1760267503.3433495,1
1.0,-70.01,,,,1760267503.3792467,1
1.0,-51.269999999999996,,,,1760267503.4151442,1
1.0,-18.995,,,,1760267503.4510417,1
1.0,21.816666666666666,,,,1760267503.4869392,1
1.0,46.370000000000005,0.130664,35.31,,1760267503.5228364,1
1.0,52.915000000000006,,,,1760267503.558734,1
1.0,53.25,,,,1760267503.5946314,1
1.0,51.485,,,,1760267503.630529,1
1.0,54.575,,,,1760267503.6664262,1
1.0,63.18,,,,1760267503.7023237,1
1.0,71.54333333333334,,,,1760267503.7382212,1
1.0,70.38499999999999,0.130664,35.31,,1760267503.7741187,1
1.0,62.045,,,,1760267503.810016,1
1.0,41.88666666666667,,,,1760267503.8459134,1
1.0,16.200000000000003,,,,1760267503.881811,1
1.0,-1.9,,,,1760267503.9177084,1
1.0,-18.256666666666664,,,,1760267503.9536057,1
1.0,-30.235,,,,1760267503.9895031,1
1.0,-37.27,0.133226,35.31,,1760267504.0254006,1
1.0,-42.3,,,,1760267504.0612981,1
1.0,-46.79666666666666,,,,1760267504.0971956,1
1.0,-51.8,,,,1760267504.1330929,1
1.0,-56.57,,,,1760267504.1689904,1
1.0,-61.76666666666667,,,,1760267504.2048879,1
1.0,-67.275,,,,1760267504.2407854,1
1.0,-74.495,0.134507,35.29,,1760267504.2766826,1
1.0,-86.57333333333334,,,,1760267504.31258,1
1.0,-92.16499999999999,,,,1760267504.3484776,1
1.0,-80.105,,,,1760267504.384375,1
1.0,-51.8,,,,1760267504.4202724,1
1.0,-9.473333333333333,,,,1760267504.4561698,1
1.0,22.240000000000002,,,,1760267504.4920673,1
1.0,35.525,0.134507,35.29,,1760267504.5279648,1
1.0,41.92,,,,1760267504.563862,1
1.0,42.870000000000005,,,,1760267504.5997596,1
1.0,42.260000000000005,,,,1760267504.635657,1
1.0,42.07,,,,1760267504.6715546,1
1.0,42.21333333333333,,,,1760267504.7074518,1
1.0,41.705,,,,1760267504.7433493,1
1.0,40.5,0.131945,35.29,,1760267504.7792468,1
1.0,36.60666666666666,,,,1760267504.8151443,1
1.0,27.869999999999997,,,,1760267504.8510416,1
1.0,17.82,,,,1760267504.886939,1
1.0,7.210000000000001,,,,1760267504.9228365,1
1.0,-0.255,,,,1760267504.958734,1
1.0,-7.625,,,,1760267504.9946315,1
1.0,-17.64,0.130664,35.29,,1760267505.0305288,1
1.0,-28.833333333333332,,,,1760267505.0664263,1
1.0,-36.485,,,,1760267505.1023238,1
1.0,-44.239999999999995,,,,1760267505.1382213,1
1.0,-59.56,,,,1760267505.1741185,1
1.0,-69.985,,,,1760267505.210016,1
1.0,-59.37,,,,1760267505.2459135,1
1.0,-18.03666666666667,0.133226,35.31,,1760267505.281811,1
1.0,29.61,,,,1760267505.3177083,1
1.0,57.43,,,,1760267505.3536057,1
1.0,77.235,,,,1760267505.3895032,1
1.0,92.37,,,,1760267505.4254007,1
1.0,92.85,,,,1760267505.461298,1
1.0,82.11500000000001,,,,1760267505.4971955,1
1.0,59.43666666666667,0.133226,35.31,,1760267505.533093,1
1.0,31.085,,,,1760267505.5689905,1
1.0,10.434999999999999,,,,1760267505.6048877,1
1.0,-6.1499999999999995,,,,1760267505.6407852,1
1.0,-16.855,,,,1760267505.6766827,1
1.0,-25.105,,,,1760267505.7125802,1
1.0,-32.95,,,,1760267505.7484775,1
1.0,-38.806666666666665,0.133226,35.31,,1760267505.784375,1
1.0,-43.035,,,,1760267505.8202724,1
1.0,-49.095,,,,1760267505.85617,1
1.0,-57.6,,,,1760267505.8920672,1
1.0,-63.705,,,,1760267505.9279647,1
1.0,-70.38499999999999,,,,1760267505.9638622,1
1.0,-82.41999999999999,,,,1760267505.9997597,1
1.0,-97.48333333333333,0.131945,35.31,,1760267506.0356572,1
1.0,-92.125,,,,1760267506.0715544,1
1.0,-60.535000000000004,,,,1760267506.107452,1
1.0,-4.989999999999999,,,,1760267506.1433494,1
1.0,37.605000000000004,,,,1760267506.179247,1
1.0,53.575,,,,1760267506.2151442,1
1.0,58.56999999999999,0.130664,35.29,,1760267506.2510417,1
1.0,54.305,,,,1760267506.2869391,1
1.0,47.655,,,,1760267506.3228366,1
1.0,42.25,,,,1760267506.358734,1
1.0,38.63666666666667,,,,1760267506.3946314,1
1.0,36.55,,,,1760267506.4305289,1
1.0,35.845,,,,1760267506.4664264,1
1.0,34.29333333333333,0.133226,35.29,,1760267506.5023236,1
1.0,26.45,,,,1760267506.5382211,1
1.0,15.0,,,,1760267506.5741186,1
1.0,2.4,,,,1760267506.610016,1
1.0,-8.315,,,,1760267506.6459134,1
1.0,-20.17,,,,1760267506.6818109,1
1.0,-33.92,,,,1760267506.7177083,1
1.0,-47.71666666666667,0.134507,35.29,,1760267506.7536058,1
1.0,-59.735,,,,1760267506.789503,1
1.0,-74.845,,,,1760267506.8254006,1
1.0,-101.33999999999999,,,,1760267506.861298,1
1.0,-113.905,,,,1760267506.8971956,1
1.0,-92.84,,,,1760267506.9330928,1
1.0,-38.15333333333333,,,,1760267506.9689903,1
1.0,11.754999999999999,0.133226,35.29,,1760267507.0048878,1
1.0,36.480000000000004,,,,1760267507.0407853,1
1.0,53.41,,,,1760267507.0766828,1
1.0,67.93666666666667,,,,1760267507.11258,1
1.0,74.055,,,,1760267507.1484776,1
1.0,73.68,,,,1760267507.184375,1
1.0,72.76,,,,1760267507.2202725,1
1.0,73.84,0.130664,35.27,,1760267507.2561698,1
1.0,75.565,,,,1760267507.2920673,1
1.0,75.72999999999999,,,,1760267507.3279648,1
1.0,69.38333333333334,,,,1760267507.3638623,1
1.0,57.07,,,,1760267507.3997595,1
1.0,46.19,,,,1760267507.435657,1
1.0,32.673333333333325,,,,1760267507.4715545,1
1.0,18.6,0.130664,35.27,,1760267507.507452,1
1.0,9.004999999999999,,,,1760267507.5433493,1
1.0,-0.7766666666666665,,,,1760267507.5792468,1
1.0,-12.61,,,,1760267507.6151443,1
1.0,-23.835,,,,1760267507.6510417,1
1.0,-33.735,,,,1760267507.686939,1
1.0,-43.910000000000004,,,,1760267507.7228365,1
1.0,-57.68,0.133226,35.27,,1760267507.758734,1
1.0,-74.80000000000001,,,,1760267507.7946315,1
1.0,-86.69666666666666,,,,1760267507.8305287,1
1.0,-62.86,,,,1760267507.8664262,1
1.0,-17.145,,,,1760267507.9023237,1
1.0,34.63333333333333,,,,1760267507.9382212,1
1.0,61.129999999999995,,,,1760267507.9741185,1
1.0,67.625,0.134507,35.27,,1760267508.010016,1
1.0,68.1,,,,1760267508.0459135,1
1.0,62.21333333333333,,,,1760267508.081811,1
1.0,53.150000000000006,,,,1760267508.1177084,1
1.0,46.75,,,,1760267508.1536057,1
1.0,40.93666666666667,,,,1760267508.1895032,1
1.0,36.715,,,,1760267508.2254007,1
1.0,33.91,0.133226,35.29,,1760267508.2612982,1
1.0,27.873333333333335,,,,1760267508.2971954,1
1.0,17.299999999999997,,,,1760267508.333093,1
1.0,7.279999999999999,,,,1760267508.3689904,1
1.0,-1.6,,,,1760267508.404888,1
1.0,-10.916666666666666,,,,1760267508.4407852,1
1.0,-20.37,,,,1760267508.4766827,1
1.0,-29.794999999999998,0.130664,35.29,,1760267508.5125802,1
1.0,-43.10666666666666,,,,1760267508.5484776,1
1.0,-53.545,,,,1760267508.584375,1
1.0,-58.995000000000005,,,,1760267508.6202724,1
1.0,-66.945,,,,1760267508.65617,1
1.0,-85.94,,,,1760267508.6920674,1
1.0,-103.58,,,,1760267508.7279646,1
1.0,-97.6,0.130664,35.29,,1760267508.7638621,1
1.0,-55.09,,,,1760267508.7997596,1
1.0,-1.71,,,,1760267508.8356571,1
1.0,27.775,,,,1760267508.8715544,1
1.0,47.153333333333336,,,,1760267508.9074519,1
1.0,58.724999999999994,,,,1760267508.9433494,1
1.0,63.155,,,,1760267508.9792469,1
1.0,63.95,0.133226,35.29,,1760267509.0151443,1
1.0,63.79,,,,1760267509.0510416,1
1.0,63.96,,,,1760267509.086939,1
1.0,63.075,,,,1760267509.1228366,1
1.0,59.06,,,,1760267509.158734,1
1.0,52.004999999999995,,,,1760267509.1946313,1
1.0,44.33,,,,1760267509.2305288,1
1.0,33.14,0.133226,35.29,,1760267509.2664263,1
1.0,21.55,,,,1760267509.3023238,1
1.0,12.465,,,,1760267509.338221,1
1.0,3.705,,,,1760267509.3741186,1
1.0,-5.636666666666666,,,,1760267509.410016,1
1.0,-12.155000000000001,,,,1760267509.4459136,1
1.0,-15.04,,,,1760267509.4818108,1
1.0,-18.093333333333334,0.135788,35.29,,1760267509.5177083,1
1.0,-24.805,,,,1760267509.5536058,1
1.0,-33.964999999999996,,,,1760267509.5895033,1
1.0,-44.97,,,,1760267509.6254005,1
1.0,-52.885000000000005,,,,1760267509.661298,1
1.0,-59.230000000000004,,,,1760267509.6971955,1
1.0,-68.955,,,,1760267509.733093,1
1.0,-85.54,0.131945,35.29,,1760267509.7689903,1
1.0,-92.345,,,,1760267509.8048878,1
1.0,-74.13,,,,1760267509.8407853,1
1.0,-27.103333333333335,,,,1760267509.8766828,1
1.0,16.185,,,,1760267509.91258,1
1.0,35.364999999999995,,,,1760267509.9484775,1
1.0,45.150000000000006,,,,1760267509.984375,1
1.0,51.276666666666664,0.130664,35.29,,1760267510.0202725,1
1.0,52.7,,,,1760267510.05617,1
1.0,51.15,,,,1760267510.0920672,1
1.0,48.99333333333334,,,,1760267510.1279647,1
1.0,47.275,,,,1760267510.1638622,1
1.0,46.055,,,,1760267510.1997597,1
1.0,44.839999999999996,,,,1760267510.235657,1
1.0,41.67,0.134507,35.27,,1760267510.2715545,1
1.0,35.315,,,,1760267510.307452,1
1.0,26.745,,,,1760267510.3433495,1
1.0,17.32,,,,1760267510.3792467,1
1.0,11.06,,,,1760267510.4151442,1
1.0,6.625,,,,1760267510.4510417,1
1.0,-1.3433333333333335,,,,1760267510.4869392,1
1.0,-9.61,0.135788,35.27,,1760267510.5228364,1
1.0,-13.875,,,,1760267510.558734,1
1.0,-18.963333333333335,,,,1760267510.5946314,1
1.0,-27.189999999999998,,,,1760267510.630529,1
1.0,-34.69,,,,1760267510.6664262,1
1.0,-40.8,,,,1760267510.7023237,1
1.0,-47.78,,,,1760267510.7382212,1
1.0,-57.31,0.133226,35.27,,1760267510.7741187,1
1.0,-67.28999999999999,,,,1760267510.810016,1
1.0,-72.15333333333335,,,,1760267510.8459134,1
1.0,-53.955,,,,1760267510.881811,1
1.0,-21.855,,,,1760267510.9177084,1
1.0,16.05333333333333,,,,1760267510.9536057,1
1.0,38.31,,,,1760267510.9895031,1
1.0,44.665,0.131945,35.27,,1760267511.0254006,1
1.0,43.144999999999996,,,,1760267511.0612981,1
1.0,34.58333333333333,,,,1760267511.0971956,1
1.0,27.77,,,,1760267511.1330929,1
1.0,26.555,,,,1760267511.1689904,1
1.0,27.286666666666665,,,,1760267511.2048879,1
1.0,28.795,,,,1760267511.2407854,1
1.0,30.314999999999998,0.131945,35.27,,1760267511.2766826,1
1.0,28.820000000000004,,,,1760267511.31258,1
1.0,22.6,,,,1760267511.3484776,1
1.0,16.605,,,,1760267511.384375,1
1.0,10.96,,,,1760267511.4202724,1
1.0,3.6333333333333333,,,,1760267511.4561698,1
1.0,-2.3,,,,1760267511.4920673,1
1.0,-5.35,0.134507,35.27,,1760267511.5279648,1
1.0,-10.096666666666668,,,,1760267511.563862,1
1.0,-16.345,,,,1760267511.5997596,1
1.0,-20.955,,,,1760267511.635657,1
1.0,-25.185000000000002,,,,1760267511.6715546,1
1.0,-31.439999999999998,,,,1760267511.7074518,1
1.0,-38.525,,,,1760267511.7433493,1
1.0,-44.0,0.134507,35.27,,1760267511.7792468,1
1.0,-50.85333333333333,,,,1760267511.8151443,1
1.0,-59.66,,,,1760267511.8510416,1
1.0,-67.73,,,,1760267511.886939,1
1.0,-67.05333333333333,,,,1760267511.9228365,1
1.0,-44.385000000000005,,,,1760267511.958734,1
1.0,-14.29,,,,1760267511.9946315,1
1.0,12.309999999999999,0.134507,35.27,,1760267512.0305288,1
1.0,30.253333333333334,,,,1760267512.0664263,1
1.0,36.32,,,,1760267512.1023238,1
1.0,37.24,,,,1760267512.1382213,1
1.0,36.903333333333336,,,,1760267512.1741185,1
1.0,35.980000000000004,,,,1760267512.210016,1
1.0,36.11,,,,1760267512.2459135,1
1.0,37.06,0.133226,35.27,,1760267512.281811,1
1.0,36.78,,,,1760267512.3177083,1
1.0,35.245000000000005,,,,1760267512.3536057,1
1.0,32.075,,,,1760267512.3895032,1
1.0,24.826666666666664,,,,1760267512.4254007,1
1.0,17.13,,,,1760267512.461298,1
1.0,13.38,,,,1760267512.4971955,1
1.0,9.933333333333334,0.131945,35.27,,1760267512.533093,1
1.0,4.145,,,,1760267512.5689905,1
1.0,-1.645,,,,1760267512.6048877,1
1.0,-5.736666666666667,,,,1760267512.6407852,1
1.0,-7.35,,,,1760267512.6766827,1
1.0,-10.49,,,,1760267512.7125802,1
1.0,-15.645,,,,1760267512.7484775,1
1.0,-20.286666666666665,0.135788,35.27,,1760267512.784375,1
1.0,-21.665,,,,1760267512.8202724,1
1.0,-23.975,,,,1760267512.85617,1
1.0,-32.24,,,,1760267512.8920672,1
1.0,-38.385000000000005,,,,1760267512.9279647,1
1.0,-29.985,,,,1760267512.9638622,1
1.0,-5.275,,,,1760267512.9997597,1
1.0,38.52,0.134507,35.27,,1760267513.0356572,1
1.0,79.74000000000001,,,,1760267513.0715544,1
1.0,107.35,,,,1760267513.107452,1
1.0,130.27333333333334,,,,1760267513.1433494,1
1.0,120.28999999999999,,,,1760267513.179247,1
1.0,78.85,,,,1760267513.2151442,1
1.0,14.190000000000003,0.134507,35.27,,1760267513.2510417,1
1.0,-34.739999999999995,,,,1760267513.2869391,1
1.0,-52.585,,,,1760267513.3228366,1
1.0,-53.025,,,,1760267513.358734,1
1.0,-43.48,,,,1760267513.3946314,1
1.0,-40.88,,,,1760267513.4305289,1
1.0,-44.875,,,,1760267513.4664264,1
1.0,-46.673333333333325,0.133226,35.27,,1760267513.5023236,1
1.0,-43.64,,,,1760267513.5382211,1
1.0,-41.385000000000005,,,,1760267513.5741186,1
1.0,-40.589999999999996,,,,1760267513.610016,1
1.0,-38.915,,,,1760267513.6459134,1
1.0,-36.43,,,,1760267513.6818109,1
1.0,-35.394999999999996,,,,1760267513.7177083,1
1.0,-36.90666666666667,0.133226,35.27,,1760267513.7536058,1
1.0,-38.084999999999994,,,,1760267513.789503,1
1.0,-38.144999999999996,,,,1760267513.8254006,1
1.0,-40.86,,,,1760267513.861298,1
1.0,-48.435,,,,1760267513.8971956,1
1.0,-54.215,,,,1760267513.9330928,1
1.0,-47.699999999999996,,,,1760267513.9689903,1
1.0,-24.369999999999997,0.135788,35.27,,1760267514.0048878,1
1.0,-2.385,,,,1760267514.0407853,1
1.0,13.195,,,,1760267514.0766828,1
1.0,22.286666666666665,,,,1760267514.11258,1
1.0,24.64,,,,1760267514.1484776,1
1.0,23.490000000000002,,,,1760267514.184375,1
1.0,21.683333333333334,,,,1760267514.2202725,1
1.0,21.18,0.137069,35.27,,1760267514.2561698,1
1.0,21.435000000000002,,,,1760267514.2920673,1
1.0,21.56,,,,1760267514.3279648,1
1.0,21.576666666666668,,,,1760267514.3638623,1
1.0,21.125,,,,1760267514.3997595,1
1.0,18.595,,,,1760267514.435657,1
1.0,12.833333333333334,,,,1760267514.4715545,1
1.0,9.260000000000002,0.135788,35.27,,1760267514.507452,1
1.0,8.93,,,,1760267514.5433493,1
1.0,5.93,,,,1760267514.5792468,1
1.0,0.12499999999999994,,,,1760267514.6151443,1
1.0,-1.755,,,,1760267514.6510417,1
1.0,-0.11499999999999999,,,,1760267514.686939,1
1.0,1.3933333333333335,,,,1760267514.7228365,1
1.0,1.5,0.133226,35.27,,1760267514.758734,1
1.0,4.9399999999999995,,,,1760267514.7946315,1
1.0,16.796666666666667,,,,1760267514.8305287,1
1.0,29.770000000000003,,,,1760267514.8664262,1
1.0,28.740000000000002,,,,1760267514.9023237,1
1.0,7.723333333333333,,,,1760267514.9382212,1
1.0,-13.504999999999999,,,,1760267514.9741185,1
1.0,-17.375,0.134507,35.27,,1760267515.010016,1
1.0,-13.92,,,,1760267515.0459135,1
1.0,-9.64,,,,1760267515.081811,1
1.0,-7.484999999999999,,,,1760267515.1177084,1
1.0,-6.775,,,,1760267515.1536057,1
1.0,-6.239999999999999,,,,1760267515.1895032,1
1.0,-4.945,,,,1760267515.2254007,1
1.0,-3.255,0.134507,35.27,,1760267515.2612982,1
1.0,-1.7866666666666668,,,,1760267515.2971954,1
1.0,-1.835,,,,1760267515.333093,1
1.0,-2.3,,,,1760267515.3689904,1
1.0,-2.7249999999999996,,,,1760267515.404888,1
1.0,-4.510000000000001,,,,1760267515.4407852,1
1.0,-7.68,,,,1760267515.4766827,1
1.0,-10.205,0.137069,35.27,,1760267515.5125802,1
1.0,-12.68,,,,1760267515.5484776,1
1.0,-14.245000000000001,,,,1760267515.584375,1
1.0,-14.99,,,,1760267515.6202724,1
1.0,-16.595,,,,1760267515.65617,1
1.0,-20.503333333333334,,,,1760267515.6920674,1
1.0,-24.355,,,,1760267515.7279646,1
1.0,-26.755000000000003,0.137069,35.27,,1760267515.7638621,1
1.0,-31.353333333333335,,,,1760267515.7997596,1
1.0,-36.980000000000004,,,,1760267515.8356571,1
1.0,-36.485,,,,1760267515.8715544,1
1.0,-22.953333333333333,,,,1760267515.9074519,1
1.0,-2.535,,,,1760267515.9433494,1
1.0,10.235,,,,1760267515.9792469,1
1.0,16.91,0.134507,35.27,,1760267516.0151443,1
1.0,19.786666666666665,,,,1760267516.0510416,1
1.0,20.325,,,,1760267516.086939,1
1.0,19.54,,,,1760267516.1228366,1
1.0,17.69333333333333,,,,1760267516.158734,1
1.0,16.825000000000003,,,,1760267516.1946313,1
1.0,17.975,,,,1760267516.2305288,1
1.0,19.333333333333332,0.134507,35.25,,1760267516.2664263,1
1.0,17.53,,,,1760267516.3023238,1
1.0,14.605,,,,1760267516.338221,1
1.0,12.82,,,,1760267516.3741186,1
1.0,12.916666666666666,,,,1760267516.410016,1
1.0,15.66,,,,1760267516.4459136,1
1.0,21.515,,,,1760267516.4818108,1
1.0,34.550000000000004,0.133226,35.25,,1760267516.5177083,1
1.0,46.515,,,,1760267516.5536058,1
1.0,42.155,,,,1760267516.5895033,1
1.0,12.093333333333334,,,,1760267516.6254005,1
1.0,-22.375,,,,1760267516.661298,1
1.0,-34.06,,,,1760267516.6971955,1
1.0,-30.009999999999998,,,,1760267516.733093,1
1.0,-15.796666666666665,0.137069,35.25,,1760267516.7689903,1
1.0,-4.25,,,,1760267516.8048878,1
1.0,-1.25,,,,1760267516.8407853,1
1.0,-4.010000000000001,,,,1760267516.8766828,1
1.0,-7.67,,,,1760267516.91258,1
1.0,-8.36,,,,1760267516.9484775,1
1.0,-8.805,,,,1760267516.984375,1
1.0,-11.646666666666667,0.135788,35.25,,1760267517.0202725,1
1.0,-13.92,,,,1760267517.05617,1
1.0,-13.02,,,,1760267517.0920672,1
1.0,-11.949999999999998,,,,1760267517.1279647,1
1.0,-14.645,,,,1760267517.1638622,1
1.0,-18.924999999999997,,,,1760267517.1997597,1
1.0,-23.69333333333333,,,,1760267517.235657,1
1.0,-27.875,0.134507,35.25,,1760267517.2715545,1
1.0,-32.489999999999995,,,,1760267517.307452,1
1.0,-38.195,,,,1760267517.3433495,1
1.0,-39.73333333333334,,,,1760267517.3792467,1
1.0,-27.705,,,,1760267517.4151442,1
1.0,-9.925,,,,1760267517.4510417,1
1.0,8.88,,,,1760267517.4869392,1
1.0,18.78,0.134507,35.25,,1760267517.5228364,1
1.0,21.25,,,,1760267517.558734,1
1.0,20.523333333333337,,,,1760267517.5946314,1
1.0,18.325,,,,1760267517.630529,1
1.0,17.005000000000003,,,,1760267517.6664262,1
1.0,15.924999999999999,,,,1760267517.7023237,1
1.0,13.746666666666664,,,,1760267517.7382212,1
1.0,10.945,0.134507,35.25,,1760267517.7741187,1
1.0,8.01,,,,1760267517.810016,1
1.0,1.566666666666667,,,,1760267517.8459134,1
1.0,-7.5649999999999995,,,,1760267517.881811,1
1.0,-14.635,,,,1760267517.9177084,1
1.0,-20.0,,,,1760267517.9536057,1
1.0,-23.380000000000003,,,,1760267517.9895031,1
1.0,-28.725,0.137069,35.25,,1760267518.0254006,1
1.0,-36.959999999999994,,,,1760267518.0612981,1
1.0,-40.45333333333333,,,,1760267518.0971956,1
1.0,-26.105,,,,1760267518.1330929,1
1.0,-4.165,,,,1760267518.1689904,1
1.0,18.106666666666666,,,,1760267518.2048879,1
1.0,28.759999999999998,,,,1760267518.2407854,1
1.0,32.065,0.13835,35.25,,1760267518.2766826,1
1.0,32.629999999999995,,,,1760267518.31258,1
1.0,29.174999999999997,,,,1760267518.3484776,1
1.0,26.23,,,,1760267518.384375,1
1.0,25.5,,,,1760267518.4202724,1
1.0,25.600000000000005,,,,1760267518.4561698,1
1.0,24.755000000000003,,,,1760267518.4920673,1
1.0,23.6,0.137069,35.25,,1760267518.5279648,1
1.0,20.766666666666666,,,,1760267518.563862,1
1.0,15.379999999999999,,,,1760267518.5997596,1
1.0,9.74,,,,1760267518.635657,1
1.0,5.029999999999999,,,,1760267518.6715546,1
1.0,1.3866666666666667,,,,1760267518.7074518,1
1.0,-3.27,,,,1760267518.7433493,1
1.0,-9.365,0.134507,35.25,,1760267518.7792468,1
1.0,-16.23,,,,1760267518.8151443,1
1.0,-20.56,,,,1760267518.8510416,1
1.0,-24.534999999999997,,,,1760267518.886939,1
1.0,-34.14666666666667,,,,1760267518.9228365,1
1.0,-48.515,,,,1760267518.958734,1
1.0,-57.175,,,,1760267518.9946315,1
1.0,-52.885000000000005,0.134507,35.25,,1760267519.0305288,1
1.0,-27.13333333333333,,,,1760267519.0664263,1
1.0,1.87,,,,1760267519.1023238,1
1.0,16.85,,,,1760267519.1382213,1
1.0,27.656666666666666,,,,1760267519.1741185,1
1.0,34.58,,,,1760267519.210016,1
1.0,37.19,,,,1760267519.2459135,1
1.0,38.24333333333333,0.133226,35.23,,1760267519.281811,1
1.0,38.92,,,,1760267519.3177083,1
1.0,39.400000000000006,,,,1760267519.3536057,1
1.0,39.519999999999996,,,,1760267519.3895032,1
1.0,38.43666666666667,,,,1760267519.4254007,1
1.0,35.14,,,,1760267519.461298,1
1.0,30.14,,,,1760267519.4971955,1
1.0,22.136666666666667,0.135788,35.23,,1760267519.533093,1
1.0,14.905,,,,1760267519.5689905,1
1.0,10.495000000000001,,,,1760267519.6048877,1
1.0,5.319999999999999,,,,1760267519.6407852,1
1.0,-0.8,,,,1760267519.6766827,1
1.0,-6.725,,,,1760267519.7125802,1
1.0,-12.23,,,,1760267519.7484775,1
1.0,-16.96666666666667,0.135788,35.23,,1760267519.784375,1
1.0,-22.27,,,,1760267519.8202724,1
1.0,-28.68,,,,1760267519.85617,1
1.0,-35.586666666666666,,,,1760267519.8920672,1
1.0,-39.945,,,,1760267519.9279647,1
1.0,-45.17,,,,1760267519.9638622,1
1.0,-54.455,,,,1760267519.9997597,1
1.0,-65.97666666666667,0.134507,35.23,,1760267520.0356572,1
1.0,-62.925,,,,1760267520.0715544,1
1.0,-41.295,,,,1760267520.107452,1
1.0,-3.5533333333333332,,,,1760267520.1433494,1
1.0,25.525,,,,1760267520.179247,1
1.0,38.599999999999994,,,,1760267520.2151442,1
1.0,47.21666666666667,0.134507,35.25,,1760267520.2510417,1
1.0,47.595,,,,1760267520.2869391,1
1.0,43.825,,,,1760267520.3228366,1
1.0,42.55,,,,1760267520.358734,1
1.0,46.45666666666667,,,,1760267520.3946314,1
1.0,52.44,,,,1760267520.4305289,1
1.0,56.58,,,,1760267520.4664264,1
1.0,55.99,0.133226,35.25,,1760267520.5023236,1
1.0,46.735,,,,1760267520.5382211,1
1.0,34.885,,,,1760267520.5741186,1
1.0,19.76,,,,1760267520.610016,1
1.0,6.375,,,,1760267520.6459134,1
1.0,-2.435,,,,1760267520.6818109,1
1.0,-8.754999999999999,,,,1760267520.7177083,1
1.0,-12.596666666666666,0.134507,35.25,,1760267520.7536058,1
1.0,-14.75,,,,1760267520.789503,1
1.0,-16.605,,,,1760267520.8254006,1
1.0,-18.0,,,,1760267520.861298,1
1.0,-18.635,,,,1760267520.8971956,1
1.0,-20.43,,,,1760267520.9330928,1
1.0,-25.206666666666667,,,,1760267520.9689903,1
1.0,-30.174999999999997,0.135788,35.25,,1760267521.0048878,1
1.0,-32.665,,,,1760267521.0407853,1
1.0,-35.05,,,,1760267521.0766828,1
1.0,-41.32333333333333,,,,1760267521.11258,1
1.0,-47.915,,,,1760267521.1484776,1
1.0,-44.525,,,,1760267521.184375,1
1.0,-22.846666666666664,,,,1760267521.2202725,1
1.0,5.925,0.133226,35.23,,1760267521.2561698,1
1.0,21.735,,,,1760267521.2920673,1
1.0,27.29,,,,1760267521.3279648,1
1.0,25.983333333333334,,,,1760267521.3638623,1
1.0,22.770000000000003,,,,1760267521.3997595,1
1.0,20.34,,,,1760267521.435657,1
1.0,19.30666666666667,,,,1760267521.4715545,1
1.0,20.135,0.134507,35.23,,1760267521.507452,1
1.0,20.69,,,,1760267521.5433493,1
1.0,20.7,,,,1760267521.5792468,1
1.0,19.439999999999998,,,,1760267521.6151443,1
1.0,16.475,,,,1760267521.6510417,1
1.0,12.01,,,,1760267521.686939,1
1.0,5.9433333333333325,,,,1760267521.7228365,1
1.0,1.42,0.133226,35.23,,1760267521.758734,1
1.0,-0.575,,,,1760267521.7946315,1
1.0,-3.573333333333333,,,,1760267521.8305287,1
1.0,-7.5,,,,1760267521.8664262,1
1.0,-9.780000000000001,,,,1760267521.9023237,1
1.0,-12.99,,,,1760267521.9382212,1
1.0,-18.314999999999998,,,,1760267521.9741185,1
1.0,-22.1,0.137069,35.23,,1760267522.010016,1
1.0,-23.69,,,,1760267522.0459135,1
1.0,-25.333333333333332,,,,1760267522.081811,1
1.0,-30.54,,,,1760267522.1177084,1
1.0,-34.495000000000005,,,,1760267522.1536057,1
1.0,-24.536666666666665,,,,1760267522.1895032,1
1.0,4.205,,,,1760267522.2254007,1
1.0,30.285,0.13835,35.23,,1760267522.2612982,1
1.0,51.25,,,,1760267522.2971954,1
1.0,65.57,,,,1760267522.333093,1
1.0,80.63,,,,1760267522.3689904,1
1.0,97.485,,,,1760267522.404888,1
1.0,100.88666666666666,,,,1760267522.4407852,1
1.0,71.515,,,,1760267522.4766827,1
1.0,30.865,0.135788,35.23,,1760267522.5125802,1
1.0,-11.24,,,,1760267522.5484776,1
1.0,-31.645,,,,1760267522.584375,1
1.0,-34.605000000000004,,,,1760267522.6202724,1
1.0,-33.615,,,,1760267522.65617,1
1.0,-33.51,,,,1760267522.6920674,1
1.0,-35.254999999999995,,,,1760267522.7279646,1
1.0,-35.55,0.134507,35.23,,1760267522.7638621,1
1.0,-33.836666666666666,,,,1760267522.7997596,1
1.0,-33.325,,,,1760267522.8356571,1
1.0,-33.625,,,,1760267522.8715544,1
1.0,-32.13333333333333,,,,1760267522.9074519,1
1.0,-31.535,,,,1760267522.9433494,1
1.0,-33.195,,,,1760267522.9792469,1
1.0,-34.475,0.133226,35.23,,1760267523.0151443,1
1.0,-35.60333333333333,,,,1760267523.0510416,1
1.0,-40.485,,,,1760267523.086939,1
1.0,-46.61,,,,1760267523.1228366,1
1.0,-44.85,,,,1760267523.158734,1
1.0,-25.805,,,,1760267523.1946313,1
1.0,-3.4699999999999998,,,,1760267523.2305288,1
1.0,15.336666666666666,0.13835,35.23,,1760267523.2664263,1
1.0,20.895,,,,1760267523.3023238,1
1.0,19.68,,,,1760267523.338221,1
1.0,16.700000000000003,,,,1760267523.3741186,1
1.0,12.553333333333335,,,,1760267523.410016,1
1.0,11.399999999999999,,,,1760267523.4459136,1
1.0,12.7,,,,1760267523.4818108,1
1.0,13.703333333333333,0.13835,35.23,,1760267523.5177083,1
1.0,14.155000000000001,,,,1760267523.5536058,1
1.0,13.735,,,,1760267523.5895033,1
1.0,9.763333333333334,,,,1760267523.6254005,1
1.0,3.8949999999999996,,,,1760267523.661298,1
1.0,0.57,,,,1760267523.6971955,1
1.0,-1.4849999999999999,,,,1760267523.733093,1
1.0,-5.396666666666667,0.13835,35.23,,1760267523.7689903,1
1.0,-11.645,,,,1760267523.8048878,1
1.0,-16.525,,,,1760267523.8407853,1
1.0,-20.72,,,,1760267523.8766828,1
1.0,-24.23,,,,1760267523.91258,1
1.0,-27.925,,,,1760267523.9484775,1
1.0,-32.955,,,,1760267523.984375,1
1.0,-36.68,0.134507,35.23,,1760267524.0202725,1
1.0,-26.93,,,,1760267524.05617,1
1.0,-4.22,,,,1760267524.0920672,1
1.0,31.05,,,,1760267524.1279647,1
1.0,61.18000000000001,,,,1760267524.1638622,1
1.0,75.74000000000001,,,,1760267524.1997597,1
1.0,73.35000000000001,,,,1760267524.235657,1
1.0,51.765,0.134507,35.23,,1760267524.2715545,1
1.0,29.93,,,,1760267524.307452,1
1.0,11.535,,,,1760267524.3433495,1
1.0,-3.2099999999999995,,,,1760267524.3792467,1
1.0,-8.235,,,,1760267524.4151442,1
1.0,-6.55,,,,1760267524.4510417,1
1.0,-4.216666666666668,,,,1760267524.4869392,1
1.0,-4.96,0.137069,35.23,,1760267524.5228364,1
1.0,-6.8,,,,1760267524.558734,1
1.0,-8.573333333333332,,,,1760267524.5946314,1
1.0,-11.0,,,,1760267524.630529,1
1.0,-13.445,,,,1760267524.6664262,1
1.0,-14.844999999999999,,,,1760267524.7023237,1
1.0,-16.053333333333335,,,,1760267524.7382212,1
1.0,-19.425,0.13835,35.23,,1760267524.7741187,1
1.0,-23.46,,,,1760267524.810016,1
1.0,-27.49,,,,1760267524.8459134,1
1.0,-30.75,,,,1760267524.881811,1
1.0,-35.629999999999995,,,,1760267524.9177084,1
1.0,-46.85333333333333,,,,1760267524.9536057,1
1.0,-53.905,,,,1760267524.9895031,1
1.0,-44.635000000000005,0.13835,35.23,,1760267525.0254006,1
1.0,-23.18,,,,1760267525.0612981,1
1.0,3.116666666666667,,,,1760267525.0971956,1
1.0,17.785,,,,1760267525.1330929,1
1.0,22.295,,,,1760267525.1689904,1
1.0,24.91333333333333,,,,1760267525.2048879,1
1.0,26.314999999999998,,,,1760267525.2407854,1
1.0,26.615000000000002,0.137069,35.21,,1760267525.2766826,1
1.0,26.776666666666667,,,,1760267525.31258,1
1.0,27.28,,,,1760267525.3484776,1
1.0,28.015,,,,1760267525.384375,1
1.0,29.39,,,,1760267525.4202724,1
1.0,30.150000000000002,,,,1760267525.4561698,1
1.0,25.740000000000002,,,,1760267525.4920673,1
1.0,18.195,0.134507,35.21,,1760267525.5279648,1
1.0,10.306666666666667,,,,1760267525.563862,1
1.0,5.665,,,,1760267525.5997596,1
1.0,0.8400000000000001,,,,1760267525.635657,1
1.0,-6.43,,,,1760267525.6715546,1
1.0,-15.083333333333334,,,,1760267525.7074518,1
1.0,-19.759999999999998,,,,1760267525.7433493,1
1.0,-20.744999999999997,0.135788,35.21,,1760267525.7792468,1
1.0,-23.383333333333336,,,,1760267525.8151443,1
1.0,-29.0,,,,1760267525.8510416,1
1.0,-28.575,,,,1760267525.886939,1
1.0,-9.393333333333333,,,,1760267525.9228365,1
1.0,19.875,,,,1760267525.958734,1
1.0,33.599999999999994,,,,1760267525.9946315,1
1.0,33.585,0.13835,35.21,,1760267526.0305288,1
1.0,26.23,,,,1760267526.0664263,1
1.0,20.439999999999998,,,,1760267526.1023238,1
1.0,16.605,,,,1760267526.1382213,1
1.0,12.653333333333334,,,,1760267526.1741185,1
1.0,10.565000000000001,,,,1760267526.210016,1
1.0,10.045,,,,1760267526.2459135,1
1.0,10.653333333333334,0.137069,35.21,,1760267526.281811,1
1.0,11.355,,,,1760267526.3177083,1
1.0,9.94,,,,1760267526.3536057,1
1.0,6.16,,,,1760267526.3895032,1
1.0,-0.3000000000000001,,,,1760267526.4254007,1
1.0,-6.83,,,,1760267526.461298,1
1.0,-11.54,,,,1760267526.4971955,1
1.0,-16.06,0.135788,35.21,,1760267526.533093,1
1.0,-20.11,,,,1760267526.5689905,1
1.0,-24.685,,,,1760267526.6048877,1
1.0,-30.846666666666664,,,,1760267526.6407852,1
1.0,-35.355000000000004,,,,1760267526.6766827,1
1.0,-39.935,,,,1760267526.7125802,1
1.0,-48.44,,,,1760267526.7484775,1
1.0,-58.81666666666667,0.134507,35.21,,1760267526.784375,1
1.0,-54.41,,,,1760267526.8202724,1
1.0,-34.94,,,,1760267526.85617,1
1.0,-4.12,,,,1760267526.8920672,1
1.0,19.605,,,,1760267526.9279647,1
1.0,29.060000000000002,,,,1760267526.9638622,1
1.0,32.69,,,,1760267526.9997597,1
1.0,34.67333333333334,0.135788,35.21,,1760267527.0356572,1
1.0,35.03,,,,1760267527.0715544,1
1.0,33.155,,,,1760267527.107452,1
1.0,30.236666666666665,,,,1760267527.1433494,1
1.0,28.15,,,,1760267527.179247,1
1.0,27.295,,,,1760267527.2151442,1
1.0,26.203333333333333,0.13835,35.23,,1760267527.2510417,1
1.0,21.725,,,,1760267527.2869391,1
1.0,14.575,,,,1760267527.3228366,1
1.0,6.805000000000001,,,,1760267527.358734,1
1.0,-0.7266666666666666,,,,1760267527.3946314,1
1.0,-4.885,,,,1760267527.4305289,1
1.0,-5.615,,,,1760267527.4664264,1
1.0,-6.583333333333333,0.139631,35.23,,1760267527.5023236,1
1.0,-10.645,,,,1760267527.5382211,1
1.0,-16.165,,,,1760267527.5741186,1
1.0,-22.87,,,,1760267527.610016,1
1.0,-28.34,,,,1760267527.6459134,1
1.0,-34.345,,,,1760267527.6818109,1
1.0,-43.33,,,,1760267527.7177083,1
1.0,-50.849999999999994,0.135788,35.23,,1760267527.7536058,1
1.0,-41.97,,,,1760267527.789503,1
1.0,-20.015,,,,1760267527.8254006,1
1.0,9.933333333333332,,,,1760267527.861298,1
1.0,28.700000000000003,,,,1760267527.8971956,1
1.0,35.03,,,,1760267527.9330928,1
1.0,38.199999999999996,,,,1760267527.9689903,1
1.0,38.545,0.135788,35.23,,1760267528.0048878,1
1.0,38.015,,,,1760267528.0407853,1
1.0,37.675,,,,1760267528.0766828,1
1.0,37.00333333333334,,,,1760267528.11258,1
1.0,36.519999999999996,,,,1760267528.1484776,1
1.0,36.415,,,,1760267528.184375,1
1.0,34.38999999999999,,,,1760267528.2202725,1
1.0,29.22,0.134507,35.21,,1760267528.2561698,1
1.0,23.28,,,,1760267528.2920673,1
1.0,16.775,,,,1760267528.3279648,1
1.0,9.393333333333333,,,,1760267528.3638623,1
1.0,4.26,,,,1760267528.3997595,1
1.0,1.495,,,,1760267528.435657,1
1.0,-3.486666666666667,,,,1760267528.4715545,1
1.0,-11.71,0.13835,35.21,,1760267528.507452,1
1.0,-19.46,,,,1760267528.5433493,1
1.0,-27.013333333333335,,,,1760267528.5792468,1
1.0,-32.885,,,,1760267528.6151443,1
1.0,-39.32,,,,1760267528.6510417,1
1.0,-48.655,,,,1760267528.686939,1
1.0,-56.24000000000001,,,,1760267528.7228365,1
1.0,-45.08,0.139631,35.21,,1760267528.758734,1
1.0,-19.685000000000002,,,,1760267528.7946315,1
1.0,12.1,,,,1760267528.8305287,1
1.0,29.935,,,,1760267528.8664262,1
1.0,34.8,,,,1760267528.9023237,1
1.0,34.72666666666667,,,,1760267528.9382212,1
1.0,30.375,,,,1760267528.9741185,1
1.0,26.604999999999997,0.13835,35.21,,1760267529.010016,1
1.0,24.95,,,,1760267529.0459135,1
1.0,24.48,,,,1760267529.081811,1
1.0,23.66,,,,1760267529.1177084,1
1.0,23.104999999999997,,,,1760267529.1536057,1
1.0,21.566666666666666,,,,1760267529.1895032,1
1.0,17.47,,,,1760267529.2254007,1
1.0,13.33,0.13835,35.21,,1760267529.2612982,1
1.0,8.456666666666665,,,,1760267529.2971954,1
1.0,2.315,,,,1760267529.333093,1
1.0,-3.29,,,,1760267529.3689904,1
1.0,-7.925,,,,1760267529.404888,1
1.0,-13.556666666666667,,,,1760267529.4407852,1
1.0,-21.22,,,,1760267529.4766827,1
1.0,-27.485,0.135788,35.21,,1760267529.5125802,1
1.0,-33.18,,,,1760267529.5484776,1
1.0,-39.74,,,,1760267529.584375,1
1.0,-48.435,,,,1760267529.6202724,1
1.0,-58.44,,,,1760267529.65617,1
1.0,-61.126666666666665,,,,1760267529.6920674,1
1.0,-42.92,,,,1760267529.7279646,1
1.0,-16.23,0.13835,35.21,,1760267529.7638621,1
1.0,12.176666666666668,,,,1760267529.7997596,1
1.0,28.619999999999997,,,,1760267529.8356571,1
1.0,35.515,,,,1760267529.8715544,1
1.0,39.78333333333333,,,,1760267529.9074519,1
1.0,40.46,,,,1760267529.9433494,1
1.0,39.285,,,,1760267529.9792469,1
1.0,38.005,0.139631,35.21,,1760267530.0151443,1
1.0,37.21,,,,1760267530.0510416,1
1.0,37.07,,,,1760267530.086939,1
1.0,36.7,,,,1760267530.1228366,1
1.0,33.14333333333334,,,,1760267530.158734,1
1.0,25.759999999999998,,,,1760267530.1946313,1
1.0,19.42,,,,1760267530.2305288,1
1.0,13.816666666666668,0.13835,35.18,,1760267530.2664263,1
1.0,9.235,,,,1760267530.3023238,1
1.0,4.82,,,,1760267530.338221,1
1.0,-0.49000000000000005,,,,1760267530.3741186,1
1.0,-6.7299999999999995,,,,1760267530.410016,1
1.0,-11.42,,,,1760267530.4459136,1
1.0,-15.360000000000001,,,,1760267530.4818108,1
1.0,-21.773333333333337,0.137069,35.18,,1760267530.5177083,1
1.0,-27.42,,,,1760267530.5536058,1
1.0,-30.785,,,,1760267530.5895033,1
1.0,-37.169999999999995,,,,1760267530.6254005,1
1.0,-47.28,,,,1760267530.661298,1
1.0,-54.504999999999995,,,,1760267530.6971955,1
1.0,-53.540000000000006,,,,1760267530.733093,1
1.0,-33.97666666666667,0.135788,35.18,,1760267530.7689903,1
1.0,-5.065,,,,1760267530.8048878,1
1.0,12.49,,,,1760267530.8407853,1
1.0,22.91,,,,1760267530.8766828,1
1.0,28.02,,,,1760267530.91258,1
1.0,30.295,,,,1760267530.9484775,1
1.0,30.630000000000003,,,,1760267530.984375,1
1.0,28.669999999999998,0.139631,35.18,,1760267531.0202725,1
1.0,26.225,,,,1760267531.05617,1
1.0,25.235,,,,1760267531.0920672,1
1.0,24.333333333333332,,,,1760267531.1279647,1
1.0,21.78,,,,1760267531.1638622,1
1.0,17.695,,,,1760267531.1997597,1
1.0,11.229999999999999,,,,1760267531.235657,1
1.0,6.91,0.139631,35.18,,1760267531.2715545,1
1.0,6.12,,,,1760267531.307452,1
1.0,4.485,,,,1760267531.3433495,1
1.0,-0.5366666666666666,,,,1760267531.3792467,1
1.0,-3.38,,,,1760267531.4151442,1
1.0,-2.39,,,,1760267531.4510417,1
1.0,-2.5500000000000003,,,,1760267531.4869392,1
1.0,-5.2,0.139631,35.18,,1760267531.5228364,1
1.0,-5.555,,,,1760267531.558734,1
1.0,1.3033333333333335,,,,1760267531.5946314,1
1.0,14.919999999999998,,,,1760267531.630529,1
1.0,22.939999999999998,,,,1760267531.6664262,1
1.0,19.505000000000003,,,,1760267531.7023237,1
1.0,1.7066666666666663,,,,1760267531.7382212,1
1.0,-15.379999999999999,0.137069,35.18,,1760267531.7741187,1
1.0,-22.16,,,,1760267531.810016,1
1.0,-22.459999999999997,,,,1760267531.8459134,1
1.0,-16.615000000000002,,,,1760267531.881811,1
1.0,-10.879999999999999,,,,1760267531.9177084,1
1.0,-7.37,,,,1760267531.9536057,1
1.0,-5.04,,,,1760267531.9895031,1
1.0,-1.2449999999999999,0.137069,35.18,,1760267532.0254006,1
1.0,2.54,,,,1760267532.0612981,1
1.0,4.033333333333334,,,,1760267532.0971956,1
1.0,3.225,,,,1760267532.1330929,1
1.0,1.79,,,,1760267532.1689904,1
1.0,-0.38999999999999996,,,,1760267532.2048879,1
1.0,-2.63,,,,1760267532.2407854,1
1.0,-5.51,0.139631,35.18,,1760267532.2766826,1
1.0,-11.156666666666666,,,,1760267532.31258,1
1.0,-16.19,,,,1760267532.3484776,1
1.0,-18.52,,,,1760267532.384375,1
1.0,-21.265,,,,1760267532.4202724,1
1.0,-26.830000000000002,,,,1760267532.4561698,1
1.0,-31.96,,,,1760267532.4920673,1
1.0,-34.91,0.139631,35.18,,1760267532.5279648,1
1.0,-40.65,,,,1760267532.563862,1
1.0,-49.045,,,,1760267532.5997596,1
1.0,-51.254999999999995,,,,1760267532.635657,1
1.0,-42.035,,,,1760267532.6715546,1
1.0,-17.843333333333334,,,,1760267532.7074518,1
1.0,3.9650000000000003,,,,1760267532.7433493,1
1.0,13.535,0.139631,35.18,,1760267532.7792468,1
1.0,19.1,,,,1760267532.8151443,1
1.0,21.439999999999998,,,,1760267532.8510416,1
1.0,21.575000000000003,,,,1760267532.886939,1
1.0,19.930000000000003,,,,1760267532.9228365,1
1.0,17.925,,,,1760267532.958734,1
1.0,18.259999999999998,,,,1760267532.9946315,1
1.0,20.479999999999997,0.137069,35.18,,1760267533.0305288,1
1.0,22.486666666666668,,,,1760267533.0664263,1
1.0,21.17,,,,1760267533.1023238,1
1.0,18.305,,,,1760267533.1382213,1
1.0,14.889999999999999,,,,1760267533.1741185,1
1.0,11.855,,,,1760267533.210016,1
1.0,9.925,,,,1760267533.2459135,1
1.0,9.473333333333331,0.137069,35.21,,1760267533.281811,1
1.0,9.195,,,,1760267533.3177083,1
1.0,7.02,,,,1760267533.3536057,1
1.0,4.6899999999999995,,,,1760267533.3895032,1
1.0,6.41,,,,1760267533.4254007,1
1.0,13.145,,,,1760267533.461298,1
1.0,14.99,,,,1760267533.4971955,1
1.0,-2.2566666666666664,0.139631,35.21,,1760267533.533093,1
1.0,-32.66,,,,1760267533.5689905,1
1.0,-46.725,,,,1760267533.6048877,1
1.0,-38.93,,,,1760267533.6407852,1
1.0,-19.65,,,,1760267533.6766827,1
1.0,-6.645,,,,1760267533.7125802,1
1.0,1.4600000000000002,,,,1760267533.7484775,1
1.0,6.446666666666666,0.139631,35.21,,1760267533.784375,1
1.0,9.325,,,,1760267533.8202724,1
1.0,10.969999999999999,,,,1760267533.85617,1
1.0,10.933333333333332,,,,1760267533.8920672,1
1.0,8.945,,,,1760267533.9279647,1
1.0,7.975,,,,1760267533.9638622,1
1.0,8.36,,,,1760267533.9997597,1
1.0,7.4366666666666665,0.139631,35.21,,1760267534.0356572,1
1.0,3.02,,,,1760267534.0715544,1
1.0,-0.61,,,,1760267534.107452,1
1.0,-2.0066666666666664,,,,1760267534.1433494,1
1.0,-2.6550000000000002,,,,1760267534.179247,1
1.0,-4.865,,,,1760267534.2151442,1
1.0,-9.016666666666667,0.137069,35.16,,1760267534.2510417,1
1.0,-12.475000000000001,,,,1760267534.2869391,1
1.0,-14.16,,,,1760267534.3228366,1
1.0,-15.875,,,,1760267534.358734,1
1.0,-20.423333333333336,,,,1760267534.3946314,1
1.0,-27.405,,,,1760267534.4305289,1
1.0,-29.515,,,,1760267534.4664264,1
1.0,-18.313333333333333,0.137069,35.16,,1760267534.5023236,1
1.0,2.725,,,,1760267534.5382211,1
1.0,16.38,,,,1760267534.5741186,1
1.0,21.356666666666666,,,,1760267534.610016,1
1.0,17.23,,,,1760267534.6459134,1
1.0,10.805,,,,1760267534.6818109,1
1.0,4.76,,,,1760267534.7177083,1
1.0,1.4633333333333336,0.140912,35.16,,1760267534.7536058,1
1.0,2.8449999999999998,,,,1760267534.789503,1
1.0,4.515,,,,1760267534.8254006,1
1.0,3.78,,,,1760267534.861298,1
1.0,1.375,,,,1760267534.8971956,1
1.0,-1.15,,,,1760267534.9330928,1
1.0,-6.546666666666667,,,,1760267534.9689903,1
1.0,-13.795,0.140912,35.16,,1760267535.0048878,1
1.0,-18.945,,,,1760267535.0407853,1
1.0,-22.435000000000002,,,,1760267535.0766828,1
1.0,-26.323333333333334,,,,1760267535.11258,1
1.0,-32.54,,,,1760267535.1484776,1
1.0,-38.31,,,,1760267535.184375,1
1.0,-37.67333333333334,,,,1760267535.2202725,1
1.0,-22.5,0.139631,35.18,,1760267535.2561698,1
1.0,-2.79,,,,1760267535.2920673,1
1.0,14.075,,,,1760267535.3279648,1
1.0,23.77333333333333,,,,1760267535.3638623,1
1.0,23.905,,,,1760267535.3997595,1
1.0,19.835,,,,1760267535.435657,1
1.0,15.383333333333333,,,,1760267535.4715545,1
1.0,15.605,0.13835,35.18,,1760267535.507452,1
1.0,18.02,,,,1760267535.5433493,1
1.0,18.576666666666668,,,,1760267535.5792468,1
1.0,16.314999999999998,,,,1760267535.6151443,1
1.0,13.129999999999999,,,,1760267535.6510417,1
1.0,7.555,,,,1760267535.686939,1
1.0,-3.6733333333333333,,,,1760267535.7228365,1
1.0,-15.06,0.137069,35.18,,1760267535.758734,1
1.0,-21.134999999999998,,,,1760267535.7946315,1
1.0,-28.316666666666666,,,,1760267535.8305287,1
1.0,-40.504999999999995,,,,1760267535.8664262,1
1.0,-51.87,,,,1760267535.9023237,1
1.0,-54.11000000000001,,,,1760267535.9382212,1
1.0,-36.14,,,,1760267535.9741185,1
1.0,-11.219999999999999,0.140912,35.18,,1760267536.010016,1
1.0,11.175,,,,1760267536.0459135,1
1.0,26.613333333333333,,,,1760267536.081811,1
1.0,33.334999999999994,,,,1760267536.1177084,1
1.0,36.275,,,,1760267536.1536057,1
1.0,37.123333333333335,,,,1760267536.1895032,1
1.0,35.095,,,,1760267536.2254007,1
1.0,32.725,0.139631,35.18,,1760267536.2612982,1
1.0,29.863333333333333,,,,1760267536.2971954,1
1.0,27.59,,,,1760267536.333093,1
1.0,26.68,,,,1760267536.3689904,1
1.0,25.17,,,,1760267536.404888,1
1.0,19.826666666666664,,,,1760267536.4407852,1
1.0,12.65,,,,1760267536.4766827,1
1.0,7.94,0.13835,35.18,,1760267536.5125802,1
1.0,2.25,,,,1760267536.5484776,1
1.0,-6.41,,,,1760267536.584375,1
1.0,-15.865,,,,1760267536.6202724,1
1.0,-24.63,,,,1760267536.65617,1
1.0,-31.703333333333337,,,,1760267536.6920674,1
1.0,-39.004999999999995,,,,1760267536.7279646,1
1.0,-49.545,0.13835,35.18,,1760267536.7638621,1
1.0,-62.64666666666667,,,,1760267536.7997596,1
1.0,-60.275,,,,1760267536.8356571,1
1.0,-40.015,,,,1760267536.8715544,1
1.0,-5.46,,,,1760267536.9074519,1
1.0,20.735,,,,1760267536.9433494,1
1.0,31.455,,,,1760267536.9792469,1
1.0,37.535,0.13835,35.18,,1760267537.0151443,1
1.0,42.38666666666666,,,,1760267537.0510416,1
1.0,44.81,,,,1760267537.086939,1
1.0,45.614999999999995,,,,1760267537.1228366,1
1.0,47.589999999999996,,,,1760267537.158734,1
1.0,51.315,,,,1760267537.1946313,1
1.0,54.879999999999995,,,,1760267537.2305288,1
1.0,58.07333333333333,0.140912,35.16,,1760267537.2664263,1
1.0,59.290000000000006,,,,1760267537.3023238,1
1.0,61.04,,,,1760267537.338221,1
1.0,65.24000000000001,,,,1760267537.3741186,1
1.0,64.61333333333333,,,,1760267537.410016,1
1.0,45.364999999999995,,,,1760267537.4459136,1
1.0,17.21,,,,1760267537.4818108,1
1.0,-16.346666666666668,0.142194,35.16,,1760267537.5177083,1
1.0,-37.224999999999994,,,,1760267537.5536058,1
1.0,-42.625,,,,1760267537.5895033,1
1.0,-42.57333333333333,,,,1760267537.6254005,1
1.0,-43.230000000000004,,,,1760267537.661298,1
1.0,-45.81,,,,1760267537.6971955,1
1.0,-48.385,,,,1760267537.733093,1
1.0,-49.20333333333334,0.140912,35.16,,1760267537.7689903,1
1.0,-49.57,,,,1760267537.8048878,1
1.0,-53.535,,,,1760267537.8407853,1
1.0,-62.406666666666666,,,,1760267537.8766828,1
1.0,-63.870000000000005,,,,1760267537.91258,1
1.0,-50.11,,,,1760267537.9484775,1
1.0,-26.03,,,,1760267537.984375,1
1.0,2.5933333333333333,0.13835,35.16,,1760267538.0202725,1
1.0,19.68,,,,1760267538.05617,1
1.0,25.009999999999998,,,,1760267538.0920672,1
1.0,26.633333333333336,,,,1760267538.1279647,1
1.0,27.145,,,,1760267538.1638622,1
1.0,27.715,,,,1760267538.1997597,1
1.0,27.146666666666665,,,,1760267538.235657,1
1.0,25.775,0.137069,35.18,,1760267538.2715545,1
1.0,25.759999999999998,,,,1760267538.307452,1
1.0,26.384999999999998,,,,1760267538.3433495,1
1.0,25.203333333333333,,,,1760267538.3792467,1
1.0,20.6,,,,1760267538.4151442,1
1.0,15.115,,,,1760267538.4510417,1
1.0,8.549999999999999,,,,1760267538.4869392,1
1.0,2.5549999999999997,0.140912,35.18,,1760267538.5228364,1
1.0,-2.14,,,,1760267538.558734,1
1.0,-6.276666666666666,,,,1760267538.5946314,1
1.0,-9.09,,,,1760267538.630529,1
1.0,-12.86,,,,1760267538.6664262,1
1.0,-18.31,,,,1760267538.7023237,1
1.0,-24.573333333333334,,,,1760267538.7382212,1
1.0,-29.075,0.140912,35.18,,1760267538.7741187,1
1.0,-32.675,,,,1760267538.810016,1
1.0,-40.5,,,,1760267538.8459134,1
1.0,-49.480000000000004,,,,1760267538.881811,1
1.0,-47.75,,,,1760267538.9177084,1
1.0,-25.679999999999996,,,,1760267538.9536057,1
1.0,4.4799999999999995,,,,1760267538.9895031,1
1.0,22.185000000000002,0.140912,35.18,,1760267539.0254006,1
1.0,31.47,,,,1760267539.0612981,1
1.0,35.29,,,,1760267539.0971956,1
1.0,35.785,,,,1760267539.1330929,1
1.0,36.065,,,,1760267539.1689904,1
1.0,37.449999999999996,,,,1760267539.2048879,1
1.0,37.125,,,,1760267539.2407854,1
1.0,33.16,0.13835,35.15,,1760267539.2766826,1
1.0,26.093333333333334,,,,1760267539.31258,1
1.0,19.25,,,,1760267539.3484776,1
1.0,12.925,,,,1760267539.384375,1
1.0,6.595,,,,1760267539.4202724,1
1.0,1.9666666666666666,,,,1760267539.4561698,1
1.0,-0.595,,,,1760267539.4920673,1
1.0,-3.77,0.13835,35.15,,1760267539.5279648,1
1.0,-10.29,,,,1760267539.563862,1
1.0,-18.15,,,,1760267539.5997596,1
1.0,-23.65,,,,1760267539.635657,1
1.0,-27.855,,,,1760267539.6715546,1
1.0,-34.28,,,,1760267539.7074518,1
1.0,-44.72,,,,1760267539.7433493,1
1.0,-53.015,0.142194,35.15,,1760267539.7792468,1
1.0,-49.22666666666666,,,,1760267539.8151443,1
1.0,-25.275,,,,1760267539.8510416,1
1.0,-0.1299999999999999,,,,1760267539.886939,1
1.0,20.8,,,,1760267539.9228365,1
1.0,29.71,,,,1760267539.958734,1
1.0,31.0,,,,1760267539.9946315,1
1.0,29.32,0.142194,35.15,,1760267540.0305288,1
1.0,26.16333333333333,,,,1760267540.0664263,1
1.0,24.67,,,,1760267540.1023238,1
1.0,24.53,,,,1760267540.1382213,1
1.0,23.906666666666666,,,,1760267540.1741185,1
1.0,22.445,,,,1760267540.210016,1
1.0,20.189999999999998,,,,1760267540.2459135,1
1.0,14.856666666666667,0.140912,35.15,,1760267540.281811,1
1.0,8.48,,,,1760267540.3177083,1
1.0,4.745,,,,1760267540.3536057,1
1.0,1.81,,,,1760267540.3895032,1
1.0,-2.763333333333333,,,,1760267540.4254007,1
1.0,-7.4350000000000005,,,,1760267540.461298,1
1.0,-10.645,,,,1760267540.4971955,1
1.0,-16.353333333333335,0.13835,35.15,,1760267540.533093,1
1.0,-23.845,,,,1760267540.5689905,1
1.0,-28.814999999999998,,,,1760267540.6048877,1
1.0,-32.63666666666666,,,,1760267540.6407852,1
1.0,-37.349999999999994,,,,1760267540.6766827,1
1.0,-44.129999999999995,,,,1760267540.7125802,1
1.0,-49.989999999999995,,,,1760267540.7484775,1
1.0,-43.4,0.13835,35.15,,1760267540.784375,1
1.0,-20.294999999999998,,,,1760267540.8202724,1
1.0,0.7949999999999999,,,,1760267540.85617,1
1.0,16.580000000000002,,,,1760267540.8920672,1
1.0,22.64,,,,1760267540.9279647,1
1.0,24.409999999999997,,,,1760267540.9638622,1
1.0,25.16,,,,1760267540.9997597,1
1.0,23.876666666666665,0.140912,35.15,,1760267541.0356572,1
1.0,21.814999999999998,,,,1760267541.0715544,1
1.0,21.42,,,,1760267541.107452,1
1.0,22.13,,,,1760267541.1433494,1
1.0,22.755000000000003,,,,1760267541.179247,1
1.0,21.66,,,,1760267541.2151442,1
1.0,16.816666666666666,0.142194,35.15,,1760267541.2510417,1
1.0,10.925,,,,1760267541.2869391,1
1.0,7.01,,,,1760267541.3228366,1
1.0,3.075,,,,1760267541.358734,1
1.0,-1.8366666666666667,,,,1760267541.3946314,1
1.0,-4.9350000000000005,,,,1760267541.4305289,1
1.0,-5.275,,,,1760267541.4664264,1
1.0,-7.0,0.142194,35.15,,1760267541.5023236,1
1.0,-14.940000000000001,,,,1760267541.5382211,1
1.0,-23.565,,,,1760267541.5741186,1
1.0,-30.02,,,,1760267541.610016,1
1.0,-35.345,,,,1760267541.6459134,1
1.0,-39.855000000000004,,,,1760267541.6818109,1
1.0,-37.595,,,,1760267541.7177083,1
1.0,-18.91,0.139631,35.15,,1760267541.7536058,1
1.0,7.95,,,,1760267541.789503,1
1.0,25.62,,,,1760267541.8254006,1
1.0,32.47666666666667,,,,1760267541.861298,1
1.0,26.130000000000003,,,,1760267541.8971956,1
1.0,19.71,,,,1760267541.9330928,1
1.0,15.906666666666666,,,,1760267541.9689903,1
1.0,12.079999999999998,0.13835,35.15,,1760267542.0048878,1
1.0,7.539999999999999,,,,1760267542.0407853,1
1.0,3.7,,,,1760267542.0766828,1
1.0,2.2900000000000005,,,,1760267542.11258,1
1.0,3.84,,,,1760267542.1484776,1
1.0,5.01,,,,1760267542.184375,1
1.0,3.3166666666666664,,,,1760267542.2202725,1
1.0,-1.87,0.140912,35.16,,1760267542.2561698,1
1.0,-7.14,,,,1760267542.2920673,1
1.0,-11.149999999999999,,,,1760267542.3279648,1
1.0,-14.953333333333333,,,,1760267542.3638623,1
1.0,-19.835,,,,1760267542.3997595,1
1.0,-22.634999999999998,,,,1760267542.435657,1
1.0,-22.560000000000002,,,,1760267542.4715545,1
1.0,-21.865000000000002,0.140912,35.16,,1760267542.507452,1
1.0,-20.645,,,,1760267542.5433493,1
1.0,-15.703333333333333,,,,1760267542.5792468,1
1.0,-10.19,,,,1760267542.6151443,1
1.0,-9.23,,,,1760267542.6510417,1
1.0,-12.04,,,,1760267542.686939,1
1.0,-13.910000000000002,,,,1760267542.7228365,1
1.0,-4.03,0.139631,35.16,,1760267542.758734,1
1.0,12.475000000000001,,,,1760267542.7946315,1
1.0,28.63,,,,1760267542.8305287,1
1.0,33.465,,,,1760267542.8664262,1
1.0,32.14,,,,1760267542.9023237,1
1.0,28.853333333333335,,,,1760267542.9382212,1
1.0,24.165,,,,1760267542.9741185,1
1.0,20.009999999999998,0.13835,35.16,,1760267543.010016,1
1.0,16.77,,,,1760267543.0459135,1
1.0,15.483333333333334,,,,1760267543.081811,1
1.0,16.479999999999997,,,,1760267543.1177084,1
1.0,16.64,,,,1760267543.1536057,1
1.0,13.023333333333333,,,,1760267543.1895032,1
1.0,6.52,,,,1760267543.2254007,1
1.0,1.58,0.139631,35.15,,1760267543.2612982,1
1.0,-3.03,,,,1760267543.2971954,1
1.0,-6.97,,,,1760267543.333093,1
1.0,-8.535,,,,1760267543.3689904,1
1.0,-8.135,,,,1760267543.404888,1
1.0,-7.69,,,,1760267543.4407852,1
1.0,-7.449999999999999,,,,1760267543.4766827,1
1.0,-3.6450000000000005,0.140912,35.15,,1760267543.5125802,1
1.0,7.1433333333333335,,,,1760267543.5484776,1
1.0,15.26,,,,1760267543.584375,1
1.0,8.61,,,,1760267543.6202724,1
1.0,-10.565,,,,1760267543.65617,1
1.0,-31.64,,,,1760267543.6920674,1
1.0,-31.5,,,,1760267543.7279646,1
1.0,-18.895,0.140912,35.15,,1760267543.7638621,1
1.0,-4.913333333333333,,,,1760267543.7997596,1
1.0,1.475,,,,1760267543.8356571,1
1.0,1.6400000000000001,,,,1760267543.8715544,1
1.0,0.6966666666666667,,,,1760267543.9074519,1
1.0,2.26,,,,1760267543.9433494,1
1.0,4.585,,,,1760267543.9792469,1
1.0,5.955,0.142194,35.15,,1760267544.0151443,1
1.0,7.156666666666666,,,,1760267544.0510416,1
1.0,9.415,,,,1760267544.086939,1
1.0,10.83,,,,1760267544.1228366,1
1.0,9.083333333333334,,,,1760267544.158734,1
1.0,4.88,,,,1760267544.1946313,1
1.0,2.59,,,,1760267544.2305288,1
1.0,1.7699999999999998,0.13835,35.13,,1760267544.2664263,1
1.0,-0.445,,,,1760267544.3023238,1
1.0,-4.055,,,,1760267544.338221,1
1.0,-6.785,,,,1760267544.3741186,1
1.0,-7.363333333333333,,,,1760267544.410016,1
1.0,-8.5,,,,1760267544.4459136,1
1.0,-12.455,,,,1760267544.4818108,1
1.0,-18.85666666666667,0.13835,35.13,,1760267544.5177083,1
1.0,-22.945,,,,1760267544.5536058,1
1.0,-25.825000000000003,,,,1760267544.5895033,1
1.0,-33.67666666666667,,,,1760267544.6254005,1
1.0,-40.47,,,,1760267544.661298,1
1.0,-35.305,,,,1760267544.6971955,1
1.0,-18.83,,,,1760267544.733093,1
1.0,5.403333333333333,0.143475,35.13,,1760267544.7689903,1
1.0,20.34,,,,1760267544.8048878,1
1.0,23.485,,,,1760267544.8407853,1
1.0,21.929999999999996,,,,1760267544.8766828,1
1.0,18.740000000000002,,,,1760267544.91258,1
1.0,17.049999999999997,,,,1760267544.9484775,1
1.0,16.75,,,,1760267544.984375,1
1.0,16.323333333333334,0.142194,35.13,,1760267545.0202725,1
1.0,15.145,,,,1760267545.05617,1
1.0,15.355,,,,1760267545.0920672,1
1.0,16.03,,,,1760267545.1279647,1
1.0,12.835,,,,1760267545.1638622,1
1.0,7.705,,,,1760267545.1997597,1
1.0,3.34,,,,1760267545.235657,1
1.0,1.175,0.140912,35.13,,1760267545.2715545,1
1.0,-2.0949999999999998,,,,1760267545.307452,1
1.0,-7.84,,,,1760267545.3433495,1
1.0,-15.173333333333334,,,,1760267545.3792467,1
1.0,-19.22,,,,1760267545.4151442,1
1.0,-20.945,,,,1760267545.4510417,1
1.0,-25.843333333333334,,,,1760267545.4869392,1
1.0,-28.130000000000003,0.13835,35.13,,1760267545.5228364,1
1.0,-17.215,,,,1760267545.558734,1
1.0,7.82,,,,1760267545.5946314,1
1.0,22.310000000000002,,,,1760267545.630529,1
1.0,19.82,,,,1760267545.6664262,1
1.0,14.5,,,,1760267545.7023237,1
1.0,13.579999999999998,,,,1760267545.7382212,1
1.0,16.685000000000002,0.13835,35.13,,1760267545.7741187,1
1.0,18.525,,,,1760267545.810016,1
1.0,17.376666666666665,,,,1760267545.8459134,1
1.0,14.645,,,,1760267545.881811,1
1.0,14.305,,,,1760267545.9177084,1
1.0,15.793333333333331,,,,1760267545.9536057,1
1.0,15.27,,,,1760267545.9895031,1
1.0,12.025,0.142194,35.13,,1760267546.0254006,1
1.0,7.795,,,,1760267546.0612981,1
1.0,3.8499999999999996,,,,1760267546.0971956,1
1.0,0.925,,,,1760267546.1330929,1
1.0,-2.535,,,,1760267546.1689904,1
1.0,-7.756666666666667,,,,1760267546.2048879,1
1.0,-11.035,,,,1760267546.2407854,1
1.0,-11.475,0.143475,35.13,,1760267546.2766826,1
1.0,-11.846666666666666,,,,1760267546.31258,1
1.0,-13.93,,,,1760267546.3484776,1
1.0,-16.05,,,,1760267546.384375,1
1.0,-17.585,,,,1760267546.4202724,1
1.0,-19.466666666666665,,,,1760267546.4561698,1
1.0,-21.259999999999998,,,,1760267546.4920673,1
1.0,-22.02,0.140912,35.13,,1760267546.5279648,1
1.0,-23.570000000000004,,,,1760267546.563862,1
1.0,-27.005,,,,1760267546.5997596,1
1.0,-29.865000000000002,,,,1760267546.635657,1
1.0,-28.75,,,,1760267546.6715546,1
1.0,-16.05,,,,1760267546.7074518,1
1.0,3.77,,,,1760267546.7433493,1
1.0,16.33,0.13835,35.13,,1760267546.7792468,1
1.0,23.176666666666666,,,,1760267546.8151443,1
1.0,25.025,,,,1760267546.8510416,1
1.0,24.525,,,,1760267546.886939,1
1.0,22.186666666666667,,,,1760267546.9228365,1
1.0,19.619999999999997,,,,1760267546.958734,1
1.0,17.985,,,,1760267546.9946315,1
1.0,17.165,0.13835,35.13,,1760267547.0305288,1
1.0,18.743333333333336,,,,1760267547.0664263,1
1.0,21.175,,,,1760267547.1023238,1
1.0,20.630000000000003,,,,1760267547.1382213,1
1.0,17.023333333333337,,,,1760267547.1741185,1
1.0,13.725,,,,1760267547.210016,1
1.0,11.280000000000001,,,,1760267547.2459135,1
1.0,4.966666666666667,0.142194,35.15,,1760267547.281811,1
1.0,-5.56,,,,1760267547.3177083,1
1.0,-16.04,,,,1760267547.3536057,1
1.0,-27.735,,,,1760267547.3895032,1
1.0,-44.19333333333333,,,,1760267547.4254007,1
1.0,-61.254999999999995,,,,1760267547.461298,1
1.0,-74.86,,,,1760267547.4971955,1
1.0,-93.52666666666666,0.142194,35.15,,1760267547.533093,1
1.0,-115.23,,,,1760267547.5689905,1
1.0,-131.39,,,,1760267547.6048877,1
1.0,-134.36999999999998,,,,1760267547.6407852,1
1.0,-110.25999999999999,,,,1760267547.6766827,1
1.0,-73.97,,,,1760267547.7125802,1
1.0,-31.54,,,,1760267547.7484775,1
1.0,20.77,0.140912,35.15,,1760267547.784375,1
1.0,62.5,,,,1760267547.8202724,1
1.0,82.41499999999999,,,,1760267547.85617,1
1.0,92.94,,,,1760267547.8920672,1
1.0,94.38,,,,1760267547.9279647,1
1.0,91.405,,,,1760267547.9638622,1
1.0,87.765,,,,1760267547.9997597,1
1.0,85.18,0.139631,35.15,,1760267548.0356572,1
1.0,81.845,,,,1760267548.0715544,1
1.0,74.56,,,,1760267548.107452,1
1.0,60.86333333333334,,,,1760267548.1433494,1
1.0,47.605000000000004,,,,1760267548.179247,1
1.0,37.739999999999995,,,,1760267548.2151442,1
1.0,23.616666666666664,0.13835,35.13,,1760267548.2510417,1
1.0,10.135,,,,1760267548.2869391,1
1.0,2.4749999999999996,,,,1760267548.3228366,1
1.0,-3.9,,,,1760267548.358734,1
1.0,-13.626666666666665,,,,1760267548.3946314,1
1.0,-23.535,,,,1760267548.4305289,1
1.0,-23.93,,,,1760267548.4664264,1
1.0,-7.396666666666666,0.142194,35.13,,1760267548.5023236,1
1.0,15.06,,,,1760267548.5382211,1
1.0,25.5,,,,1760267548.5741186,1
1.0,27.373333333333335,,,,1760267548.610016,1
1.0,21.645,,,,1760267548.6459134,1
1.0,13.335,,,,1760267548.6818109,1
1.0,5.9350000000000005,,,,1760267548.7177083,1
1.0,0.9899999999999999,0.140912,35.13,,1760267548.7536058,1
1.0,-2.13,,,,1760267548.789503,1
1.0,-4.62,,,,1760267548.8254006,1
1.0,-7.083333333333333,,,,1760267548.861298,1
1.0,-9.605,,,,1760267548.8971956,1
1.0,-12.795,,,,1760267548.9330928,1
1.0,-16.36,,,,1760267548.9689903,1
1.0,-17.735,0.142194,35.13,,1760267549.0048878,1
1.0,-19.705,,,,1760267549.0407853,1
1.0,-23.775,,,,1760267549.0766828,1
1.0,-27.05333333333333,,,,1760267549.11258,1
1.0,-26.965,,,,1760267549.1484776,1
1.0,-27.994999999999997,,,,1760267549.184375,1
1.0,-33.95333333333333,,,,1760267549.2202725,1
1.0,-41.145,0.139631,35.15,,1760267549.2561698,1
1.0,-39.385000000000005,,,,1760267549.2920673,1
1.0,-25.2,,,,1760267549.3279648,1
1.0,0.29999999999999954,,,,1760267549.3638623,1
1.0,16.89,,,,1760267549.3997595,1
1.0,21.345,,,,1760267549.435657,1
1.0,23.900000000000002,,,,1760267549.4715545,1
1.0,24.375,0.13835,35.15,,1760267549.507452,1
1.0,21.939999999999998,,,,1760267549.5433493,1
1.0,17.26,,,,1760267549.5792468,1
1.0,12.725000000000001,,,,1760267549.6151443,1
1.0,9.99,,,,1760267549.6510417,1
1.0,8.535,,,,1760267549.686939,1
1.0,6.816666666666667,,,,1760267549.7228365,1
1.0,2.605,0.142194,35.15,,1760267549.758734,1
1.0,-2.425,,,,1760267549.7946315,1
1.0,-7.859999999999999,,,,1760267549.8305287,1
1.0,-12.120000000000001,,,,1760267549.8664262,1
1.0,-16.14,,,,1760267549.9023237,1
1.0,-21.213333333333335,,,,1760267549.9382212,1
1.0,-24.064999999999998,,,,1760267549.9741185,1
1.0,-26.185,0.142194,35.15,,1760267550.010016,1
1.0,-31.255,,,,1760267550.0459135,1
1.0,-40.276666666666664,,,,1760267550.081811,1
1.0,-41.150000000000006,,,,1760267550.1177084,1
1.0,-26.93,,,,1760267550.1536057,1
1.0,2.0933333333333337,,,,1760267550.1895032,1
1.0,25.705,,,,1760267550.2254007,1
1.0,35.57,0.142194,35.15,,1760267550.2612982,1
1.0,40.51,,,,1760267550.2971954,1
1.0,39.79,,,,1760267550.333093,1
1.0,36.515,,,,1760267550.3689904,1
1.0,33.22,,,,1760267550.404888,1
1.0,29.863333333333333,,,,1760267550.4407852,1
1.0,27.369999999999997,,,,1760267550.4766827,1
1.0,26.16,0.139631,35.15,,1760267550.5125802,1
1.0,24.11,,,,1760267550.5484776,1
1.0,19.485,,,,1760267550.584375,1
1.0,13.08,,,,1760267550.6202724,1
1.0,6.0649999999999995,,,,1760267550.65617,1
1.0,0.03999999999999996,,,,1760267550.6920674,1
1.0,-4.390000000000001,,,,1760267550.7279646,1
1.0,-9.19,0.140912,35.15,,1760267550.7638621,1
1.0,-15.603333333333333,,,,1760267550.7997596,1
1.0,-20.994999999999997,,,,1760267550.8356571,1
1.0,-26.41,,,,1760267550.8715544,1
1.0,-37.416666666666664,,,,1760267550.9074519,1
1.0,-47.480000000000004,,,,1760267550.9433494,1
1.0,-44.32,,,,1760267550.9792469,1
1.0,-27.895,0.142194,35.15,,1760267551.0151443,1
1.0,-0.9966666666666667,,,,1760267551.0510416,1
1.0,19.385,,,,1760267551.086939,1
1.0,28.090000000000003,,,,1760267551.1228366,1
1.0,31.566666666666666,,,,1760267551.158734,1
1.0,32.815,,,,1760267551.1946313,1
1.0,35.085,,,,1760267551.2305288,1
1.0,37.593333333333334,0.142194,35.13,,1760267551.2664263,1
1.0,40.88,,,,1760267551.3023238,1
1.0,47.92,,,,1760267551.338221,1
1.0,59.295,,,,1760267551.3741186,1
1.0,71.75666666666666,,,,1760267551.410016,1
1.0,68.88,,,,1760267551.4459136,1
1.0,50.915,,,,1760267551.4818108,1
1.0,24.959999999999997,0.143475,35.13,,1760267551.5177083,1
1.0,7.16,,,,1760267551.5536058,1
1.0,-3.5,,,,1760267551.5895033,1
1.0,-16.236666666666665,,,,1760267551.6254005,1
1.0,-23.655,,,,1760267551.661298,1
1.0,-23.01,,,,1760267551.6971955,1
1.0,-20.765,,,,1760267551.733093,1
1.0,-24.89,0.139631,35.13,,1760267551.7689903,1
1.0,-37.349999999999994,,,,1760267551.8048878,1
1.0,-48.94,,,,1760267551.8407853,1
1.0,-58.903333333333336,,,,1760267551.8766828,1
1.0,-63.63,,,,1760267551.91258,1
1.0,-67.53999999999999,,,,1760267551.9484775,1
1.0,-74.145,,,,1760267551.984375,1
1.0,-72.64,0.140912,35.13,,1760267552.0202725,1
1.0,-47.055,,,,1760267552.05617,1
1.0,-16.48,,,,1760267552.0920672,1
1.0,9.87,,,,1760267552.1279647,1
1.0,21.87,,,,1760267552.1638622,1
1.0,25.685000000000002,,,,1760267552.1997597,1
1.0,27.459999999999997,,,,1760267552.235657,1
1.0,28.485,0.142194,35.13,,1760267552.2715545,1
1.0,28.384999999999998,,,,1760267552.307452,1
1.0,26.939999999999998,,,,1760267552.3433495,1
1.0,26.11,,,,1760267552.3792467,1
1.0,27.27,,,,1760267552.4151442,1
1.0,26.96,,,,1760267552.4510417,1
1.0,22.540000000000003,,,,1760267552.4869392,1
1.0,15.705000000000002,0.142194,35.13,,1760267552.5228364,1
1.0,9.989999999999998,,,,1760267552.558734,1
1.0,3.81,,,,1760267552.5946314,1
1.0,-0.995,,,,1760267552.630529,1
1.0,-4.105,,,,1760267552.6664262,1
1.0,-7.51,,,,1760267552.7023237,1
1.0,-12.25,,,,1760267552.7382212,1
1.0,-15.835,0.143475,35.13,,1760267552.7741187,1
1.0,-17.895,,,,1760267552.810016,1
1.0,-22.060000000000002,,,,1760267552.8459134,1
1.0,-27.935000000000002,,,,1760267552.881811,1
1.0,-32.22,,,,1760267552.9177084,1
1.0,-36.26333333333333,,,,1760267552.9536057,1
1.0,-41.285,,,,1760267552.9895031,1
1.0,-47.56,0.140912,35.13,,1760267553.0254006,1
1.0,-51.755,,,,1760267553.0612981,1
1.0,-41.18,,,,1760267553.0971956,1
1.0,-14.85,,,,1760267553.1330929,1
1.0,5.6,,,,1760267553.1689904,1
1.0,19.75,,,,1760267553.2048879,1
1.0,25.549999999999997,,,,1760267553.2407854,1
1.0,24.93,0.139631,35.13,,1760267553.2766826,1
1.0,20.53333333333333,,,,1760267553.31258,1
1.0,17.52,,,,1760267553.3484776,1
1.0,16.89,,,,1760267553.384375,1
1.0,16.63,,,,1760267553.4202724,1
1.0,16.63,,,,1760267553.4561698,1
1.0,16.384999999999998,,,,1760267553.4920673,1
1.0,14.175,0.143475,35.13,,1760267553.5279648,1
1.0,8.113333333333332,,,,1760267553.563862,1
1.0,2.09,,,,1760267553.5997596,1
1.0,-0.2,,,,1760267553.635657,1
1.0,-0.8049999999999999,,,,1760267553.6715546,1
1.0,-1.8033333333333335,,,,1760267553.7074518,1
1.0,-3.25,,,,1760267553.7433493,1
1.0,-2.7649999999999997,0.144756,35.13,,1760267553.7792468,1
1.0,-0.8133333333333335,,,,1760267553.8151443,1
1.0,-2.2600000000000002,,,,1760267553.8510416,1
1.0,-6.725,,,,1760267553.886939,1
1.0,-11.08,,,,1760267553.9228365,1
1.0,-13.085,,,,1760267553.958734,1
1.0,-16.25,,,,1760267553.9946315,1
1.0,-22.77,0.143475,35.13,,1760267554.0305288,1
1.0,-29.80666666666667,,,,1760267554.0664263,1
1.0,-22.695,,,,1760267554.1023238,1
1.0,-1.9149999999999996,,,,1760267554.1382213,1
1.0,26.293333333333333,,,,1760267554.1741185,1
1.0,42.685,,,,1760267554.210016,1
1.0,47.745000000000005,,,,1760267554.2459135,1
1.0,49.03,0.140912,35.13,,1760267554.281811,1
1.0,44.63,,,,1760267554.3177083,1
1.0,37.305,,,,1760267554.3536057,1
1.0,29.045,,,,1760267554.3895032,1
1.0,20.44333333333333,,,,1760267554.4254007,1
1.0,15.27,,,,1760267554.461298,1
1.0,13.045,,,,1760267554.4971955,1
1.0,8.933333333333332,0.140912,35.13,,1760267554.533093,1
1.0,2.14,,,,1760267554.5689905,1
1.0,-3.7750000000000004,,,,1760267554.6048877,1
1.0,-8.873333333333333,,,,1760267554.6407852,1
1.0,-11.635000000000002,,,,1760267554.6766827,1
1.0,-13.33,,,,1760267554.7125802,1
1.0,-15.04,,,,1760267554.7484775,1
1.0,-16.59,0.139631,35.13,,1760267554.784375,1
1.0,-18.125,,,,1760267554.8202724,1
1.0,-20.075000000000003,,,,1760267554.85617,1
1.0,-22.22666666666667,,,,1760267554.8920672,1
1.0,-22.275,,,,1760267554.9279647,1
1.0,-21.47,,,,1760267554.9638622,1
1.0,-22.97,,,,1760267554.9997597,1
1.0,-30.129999999999995,0.140912,35.13,,1760267555.0356572,1
1.0,-34.855000000000004,,,,1760267555.0715544,1
1.0,-26.305,,,,1760267555.107452,1
1.0,-1.4833333333333332,,,,1760267555.1433494,1
1.0,20.72,,,,1760267555.179247,1
1.0,27.79,,,,1760267555.2151442,1
1.0,25.656666666666666,0.143475,35.13,,1760267555.2510417,1
1.0,18.104999999999997,,,,1760267555.2869391,1
1.0,11.82,,,,1760267555.3228366,1
1.0,7.67,,,,1760267555.358734,1
1.0,5.506666666666667,,,,1760267555.3946314,1
1.0,4.555,,,,1760267555.4305289,1
1.0,4.470000000000001,,,,1760267555.4664264,1
1.0,6.536666666666666,0.140912,35.13,,1760267555.5023236,1
1.0,8.08,,,,1760267555.5382211,1
1.0,5.775,,,,1760267555.5741186,1
1.0,1.3699999999999999,,,,1760267555.610016,1
1.0,-0.9450000000000001,,,,1760267555.6459134,1
1.0,-2.65,,,,1760267555.6818109,1
1.0,-5.825,,,,1760267555.7177083,1
1.0,-9.886666666666668,0.140912,35.13,,1760267555.7536058,1
1.0,-12.28,,,,1760267555.789503,1
1.0,-13.875,,,,1760267555.8254006,1
1.0,-17.16333333333333,,,,1760267555.861298,1
1.0,-20.75,,,,1760267555.8971956,1
1.0,-22.71,,,,1760267555.9330928,1
1.0,-25.62,,,,1760267555.9689903,1
1.0,-32.04,0.140912,35.13,,1760267556.0048878,1
1.0,-38.55,,,,1760267556.0407853,1
1.0,-38.685,,,,1760267556.0766828,1
1.0,-20.91333333333333,,,,1760267556.11258,1
1.0,5.875,,,,1760267556.1484776,1
1.0,20.744999999999997,,,,1760267556.184375,1
1.0,26.14,,,,1760267556.2202725,1
1.0,23.82,0.143475,35.11,,1760267556.2561698,1
1.0,19.6,,,,1760267556.2920673,1
1.0,16.15,,,,1760267556.3279648,1
1.0,14.193333333333333,,,,1760267556.3638623,1
1.0,13.265,,,,1760267556.3997595,1
1.0,13.73,,,,1760267556.435657,1
1.0,15.413333333333334,,,,1760267556.4715545,1
1.0,14.555,0.143475,35.11,,1760267556.507452,1
1.0,11.18,,,,1760267556.5433493,1
1.0,6.706666666666667,,,,1760267556.5792468,1
1.0,3.135,,,,1760267556.6151443,1
1.0,0.395,,,,1760267556.6510417,1
1.0,-2.325,,,,1760267556.686939,1
1.0,-5.196666666666666,,,,1760267556.7228365,1
1.0,-8.675,0.142194,35.11,,1760267556.758734,1
1.0,-13.219999999999999,,,,1760267556.7946315,1
1.0,-20.076666666666668,,,,1760267556.8305287,1
1.0,-26.07,,,,1760267556.8664262,1
1.0,-30.09,,,,1760267556.9023237,1
1.0,-36.876666666666665,,,,1760267556.9382212,1
1.0,-46.16,,,,1760267556.9741185,1
1.0,-48.724999999999994,0.139631,35.11,,1760267557.010016,1
1.0,-38.269999999999996,,,,1760267557.0459135,1
1.0,-10.709999999999999,,,,1760267557.081811,1
1.0,12.79,,,,1760267557.1177084,1
1.0,20.705,,,,1760267557.1536057,1
1.0,22.19666666666667,,,,1760267557.1895032,1
1.0,20.915,,,,1760267557.2254007,1
1.0,20.055,0.139631,35.11,,1760267557.2612982,1
1.0,20.26,,,,1760267557.2971954,1
1.0,21.705,,,,1760267557.333093,1
1.0,24.17,,,,1760267557.3689904,1
1.0,27.240000000000002,,,,1760267557.404888,1
1.0,29.200000000000003,,,,1760267557.4407852,1
1.0,27.035,,,,1760267557.4766827,1
1.0,22.490000000000002,0.142194,35.11,,1760267557.5125802,1
1.0,16.64,,,,1760267557.5484776,1
1.0,12.065000000000001,,,,1760267557.584375,1
1.0,8.58,,,,1760267557.6202724,1
1.0,4.29,,,,1760267557.65617,1
1.0,-1.6033333333333335,,,,1760267557.6920674,1
1.0,-5.42,,,,1760267557.7279646,1
1.0,-6.13,0.143475,35.11,,1760267557.7638621,1
1.0,-8.003333333333332,,,,1760267557.7997596,1
1.0,-12.85,,,,1760267557.8356571,1
1.0,-17.23,,,,1760267557.8715544,1
1.0,-22.663333333333338,,,,1760267557.9074519,1
1.0,-30.665,,,,1760267557.9433494,1
1.0,-39.25,,,,1760267557.9792469,1
1.0,-44.63,0.142194,35.11,,1760267558.0151443,1
1.0,-35.556666666666665,,,,1760267558.0510416,1
1.0,-12.514999999999999,,,,1760267558.086939,1
1.0,4.46,,,,1760267558.1228366,1
1.0,15.076666666666668,,,,1760267558.158734,1
1.0,19.5,,,,1760267558.1946313,1
1.0,20.365000000000002,,,,1760267558.2305288,1
1.0,20.176666666666666,0.140912,35.11,,1760267558.2664263,1
1.0,21.41,,,,1760267558.3023238,1
1.0,22.425,,,,1760267558.338221,1
1.0,21.78,,,,1760267558.3741186,1
1.0,20.41,,,,1760267558.410016,1
1.0,19.59,,,,1760267558.4459136,1
1.0,17.08,,,,1760267558.4818108,1
1.0,10.213333333333333,0.140912,35.11,,1760267558.5177083,1
1.0,3.375,,,,1760267558.5536058,1
1.0,0.15500000000000003,,,,1760267558.5895033,1
1.0,-3.203333333333333,,,,1760267558.6254005,1
1.0,-7.025,,,,1760267558.661298,1
1.0,-8.36,,,,1760267558.6971955,1
1.0,-7.74,,,,1760267558.733093,1
1.0,-8.736666666666666,0.142194,35.11,,1760267558.7689903,1
1.0,-14.085,,,,1760267558.8048878,1
1.0,-19.015,,,,1760267558.8407853,1
1.0,-22.939999999999998,,,,1760267558.8766828,1
1.0,-28.235,,,,1760267558.91258,1
1.0,-36.005,,,,1760267558.9484775,1
1.0,-42.97,,,,1760267558.984375,1
1.0,-38.17666666666667,0.143475,35.11,,1760267559.0202725,1
1.0,-15.715,,,,1760267559.05617,1
1.0,7.31,,,,1760267559.0920672,1
1.0,26.930000000000003,,,,1760267559.1279647,1
1.0,35.239999999999995,,,,1760267559.1638622,1
1.0,36.540000000000006,,,,1760267559.1997597,1
1.0,35.626666666666665,,,,1760267559.235657,1
1.0,33.724999999999994,0.143475,35.11,,1760267559.2715545,1
1.0,31.965000000000003,,,,1760267559.307452,1
1.0,30.08,,,,1760267559.3433495,1
1.0,27.993333333333336,,,,1760267559.3792467,1
1.0,26.79,,,,1760267559.4151442,1
1.0,25.31,,,,1760267559.4510417,1
1.0,20.863333333333333,,,,1760267559.4869392,1
1.0,15.579999999999998,0.140912,35.11,,1760267559.5228364,1
1.0,12.05,,,,1760267559.558734,1
1.0,8.12,,,,1760267559.5946314,1
1.0,4.505,,,,1760267559.630529,1
1.0,1.265,,,,1760267559.6664262,1
1.0,-2.55,,,,1760267559.7023237,1
1.0,-6.596666666666667,,,,1760267559.7382212,1
1.0,-9.375,0.140912,35.11,,1760267559.7741187,1
1.0,-11.899999999999999,,,,1760267559.810016,1
1.0,-16.97666666666667,,,,1760267559.8459134,1
1.0,-22.965,,,,1760267559.881811,1
1.0,-27.045,,,,1760267559.9177084,1
1.0,-32.12,,,,1760267559.9536057,1
1.0,-39.504999999999995,,,,1760267559.9895031,1
1.0,-47.185,0.140912,35.11,,1760267560.0254006,1
1.0,-52.185,,,,1760267560.0612981,1
1.0,-43.650000000000006,,,,1760267560.0971956,1
1.0,-19.06,,,,1760267560.1330929,1
1.0,3.26,,,,1760267560.1689904,1
1.0,22.92,,,,1760267560.2048879,1
1.0,34.025,,,,1760267560.2407854,1
1.0,36.89,0.143475,35.11,,1760267560.2766826,1
1.0,35.42666666666667,,,,1760267560.31258,1
1.0,33.65,,,,1760267560.3484776,1
1.0,33.495000000000005,,,,1760267560.384375,1
1.0,33.215,,,,1760267560.4202724,1
1.0,32.52333333333333,,,,1760267560.4561698,1
1.0,32.725,,,,1760267560.4920673,1
1.0,32.195,0.142194,35.11,,1760267560.5279648,1
1.0,27.876666666666665,,,,1760267560.563862,1
1.0,21.365000000000002,,,,1760267560.5997596,1
1.0,16.535,,,,1760267560.635657,1
1.0,12.295,,,,1760267560.6715546,1
1.0,6.72,,,,1760267560.7074518,1
1.0,1.235,,,,1760267560.7433493,1
1.0,-1.865,0.143475,35.11,,1760267560.7792468,1
1.0,-5.543333333333333,,,,1760267560.8151443,1
1.0,-11.379999999999999,,,,1760267560.8510416,1
1.0,-16.44,,,,1760267560.886939,1
1.0,-19.886666666666667,,,,1760267560.9228365,1
1.0,-21.75,,,,1760267560.958734,1
1.0,-25.5,,,,1760267560.9946315,1
1.0,-33.805,0.140912,35.11,,1760267561.0305288,1
1.0,-45.81,,,,1760267561.0664263,1
1.0,-45.32,,,,1760267561.1023238,1
1.0,-30.805,,,,1760267561.1382213,1
1.0,-10.24,,,,1760267561.1741185,1
1.0,4.785,,,,1760267561.210016,1
1.0,17.185,,,,1760267561.2459135,1
1.0,32.053333333333335,0.140912,35.11,,1760267561.281811,1
1.0,37.91,,,,1760267561.3177083,1
1.0,34.965,,,,1760267561.3536057,1
1.0,28.885,,,,1760267561.3895032,1
1.0,20.666666666666668,,,,1760267561.4254007,1
1.0,16.79,,,,1760267561.461298,1
1.0,18.85,,,,1760267561.4971955,1
1.0,20.27,0.143475,35.11,,1760267561.533093,1
1.0,14.625,,,,1760267561.5689905,1
1.0,7.415,,,,1760267561.6048877,1
1.0,0.5499999999999999,,,,1760267561.6407852,1
1.0,-5.865,,,,1760267561.6766827,1
1.0,-11.885,,,,1760267561.7125802,1
1.0,-16.805,,,,1760267561.7484775,1
1.0,-20.94666666666667,0.143475,35.11,,1760267561.784375,1
1.0,-26.55,,,,1760267561.8202724,1
1.0,-32.285,,,,1760267561.85617,1
1.0,-36.973333333333336,,,,1760267561.8920672,1
1.0,-40.2,,,,1760267561.9279647,1
1.0,-45.585,,,,1760267561.9638622,1
1.0,-54.834999999999994,,,,1760267561.9997597,1
1.0,-65.01666666666667,0.142194,35.11,,1760267562.0356572,1
1.0,-59.82,,,,1760267562.0715544,1
1.0,-38.83,,,,1760267562.107452,1
1.0,-7.9866666666666655,,,,1760267562.1433494,1
1.0,11.39,,,,1760267562.179247,1
1.0,17.560000000000002,,,,1760267562.2151442,1
1.0,20.650000000000002,0.142194,35.09,,1760267562.2510417,1
1.0,21.13,,,,1760267562.2869391,1
1.0,19.335,,,,1760267562.3228366,1
1.0,15.355,,,,1760267562.358734,1
1.0,8.58,,,,1760267562.3946314,1
1.0,5.02,,,,1760267562.4305289,1
1.0,6.62,,,,1760267562.4664264,1
1.0,8.923333333333334,0.139631,35.09,,1760267562.5023236,1
1.0,9.115,,,,1760267562.5382211,1
1.0,9.629999999999999,,,,1760267562.5741186,1
1.0,11.44,,,,1760267562.610016,1
1.0,12.75,,,,1760267562.6459134,1
1.0,11.945,,,,1760267562.6818109,1
1.0,9.36,,,,1760267562.7177083,1
1.0,6.2700000000000005,0.142194,35.09,,1760267562.7536058,1
1.0,3.105,,,,1760267562.789503,1
1.0,-2.205,,,,1760267562.8254006,1
1.0,-10.443333333333333,,,,1760267562.861298,1
1.0,-16.67,,,,1760267562.8971956,1
1.0,-21.885,,,,1760267562.9330928,1
1.0,-33.160000000000004,,,,1760267562.9689903,1
1.0,-46.65,0.142194,35.09,,1760267563.0048878,1
1.0,-49.44,,,,1760267563.0407853,1
1.0,-36.86,,,,1760267563.0766828,1
1.0,-5.796666666666667,,,,1760267563.11258,1
1.0,22.485,,,,1760267563.1484776,1
1.0,35.495000000000005,,,,1760267563.184375,1
1.0,40.57,,,,1760267563.2202725,1
1.0,38.13,0.142194,35.09,,1760267563.2561698,1
1.0,35.41,,,,1760267563.2920673,1
1.0,34.69,,,,1760267563.3279648,1
1.0,34.35333333333333,,,,1760267563.3638623,1
1.0,33.175,,,,1760267563.3997595,1
1.0,32.39,,,,1760267563.435657,1
1.0,31.496666666666666,,,,1760267563.4715545,1
1.0,29.865000000000002,0.142194,35.09,,1760267563.507452,1
1.0,27.174999999999997,,,,1760267563.5433493,1
1.0,21.513333333333335,,,,1760267563.5792468,1
1.0,15.105,,,,1760267563.6151443,1
1.0,10.15,,,,1760267563.6510417,1
1.0,4.93,,,,1760267563.686939,1
1.0,-0.89,,,,1760267563.7228365,1
1.0,-4.615,0.142194,35.09,,1760267563.758734,1
1.0,-7.359999999999999,,,,1760267563.7946315,1
1.0,-14.1,,,,1760267563.8305287,1
1.0,-23.23,,,,1760267563.8664262,1
1.0,-29.285,,,,1760267563.9023237,1
1.0,-35.13333333333333,,,,1760267563.9382212,1
1.0,-43.66,,,,1760267563.9741185,1
1.0,-53.985,0.140912,35.09,,1760267564.010016,1
1.0,-62.084999999999994,,,,1760267564.0459135,1
1.0,-55.00333333333333,,,,1760267564.081811,1
1.0,-27.945,,,,1760267564.1177084,1
1.0,-1.7349999999999999,,,,1760267564.1536057,1
1.0,21.029999999999998,,,,1760267564.1895032,1
1.0,33.055,,,,1760267564.2254007,1
1.0,38.115,0.139631,35.11,,1760267564.2612982,1
1.0,42.160000000000004,,,,1760267564.2971954,1
1.0,43.99,,,,1760267564.333093,1
1.0,42.925,,,,1760267564.3689904,1
1.0,39.41,,,,1760267564.404888,1
1.0,33.296666666666674,,,,1760267564.4407852,1
1.0,28.055,,,,1760267564.4766827,1
1.0,24.57,0.143475,35.11,,1760267564.5125802,1
1.0,19.03,,,,1760267564.5484776,1
1.0,12.275,,,,1760267564.584375,1
1.0,7.045,,,,1760267564.6202724,1
1.0,2.6950000000000003,,,,1760267564.65617,1
1.0,-2.6,,,,1760267564.6920674,1
1.0,-10.165,,,,1760267564.7279646,1
1.0,-17.38,0.142194,35.11,,1760267564.7638621,1
1.0,-23.903333333333336,,,,1760267564.7997596,1
1.0,-28.619999999999997,,,,1760267564.8356571,1
1.0,-33.42,,,,1760267564.8715544,1
1.0,-39.586666666666666,,,,1760267564.9074519,1
1.0,-44.51,,,,1760267564.9433494,1
1.0,-49.875,,,,1760267564.9792469,1
1.0,-58.965,0.142194,35.11,,1760267565.0151443,1
1.0,-70.26333333333334,,,,1760267565.0510416,1
1.0,-67.1,,,,1760267565.086939,1
1.0,-46.575,,,,1760267565.1228366,1
1.0,-10.566666666666668,,,,1760267565.158734,1
1.0,19.085,,,,1760267565.1946313,1
1.0,31.814999999999998,,,,1760267565.2305288,1
1.0,36.47,0.140912,35.09,,1760267565.2664263,1
1.0,36.235,,,,1760267565.3023238,1
1.0,36.2,,,,1760267565.338221,1
1.0,36.675,,,,1760267565.3741186,1
1.0,37.71,,,,1760267565.410016,1
1.0,41.215,,,,1760267565.4459136,1
1.0,45.025,,,,1760267565.4818108,1
1.0,45.04,0.139631,35.09,,1760267565.5177083,1
1.0,39.475,,,,1760267565.5536058,1
1.0,32.910000000000004,,,,1760267565.5895033,1
1.0,24.813333333333333,,,,1760267565.6254005,1
1.0,18.5,,,,1760267565.661298,1
