ID,empatica_bvp,empatica_eda,empatica_temp,samsung_bvp,time,CL
1.0,21.528888888888886,0.19213,34.61,,1760267825.1116478,0
1.0,17.97125,,,,1760267825.2389205,0
1.0,-13.902500000000002,0.188288,34.63,,1760267825.3661933,0
1.0,-47.17,,,,1760267825.493466,0
1.0,-75.41874999999999,0.189569,34.63,,1760267825.6207387,0
1.0,9.780000000000001,,,,1760267825.7480114,0
1.0,-6.228888888888888,0.19213,34.63,,1760267825.8752842,0
1.0,-3.7512500000000006,0.189569,34.63,,1760267826.0025568,0
1.0,55.161249999999995,,,,1760267826.1298296,0
1.0,140.04625,0.19213,34.63,,1760267826.2571023,0
1.0,137.7875,,,,1760267826.384375,0
1.0,-76.09375,0.19213,34.63,,1760267826.5116477,0
1.0,-190.4925,,,,1760267826.6389205,0
1.0,-22.428888888888892,0.189569,34.63,,1760267826.7661932,0
1.0,22.3325,,,,1760267826.893466,0
1.0,37.1475,0.189569,34.63,,1760267827.0207386,0
1.0,34.1725,,,,1760267827.1480114,0
1.0,10.981250000000001,0.19213,34.61,,1760267827.275284,0
1.0,-10.23375,,,,1760267827.402557,0
1.0,-36.92,0.19213,34.61,,1760267827.5298295,0
1.0,-68.17333333333333,,,,1760267827.6571023,0
1.0,13.146250000000004,0.190849,34.61,,1760267827.784375,0
1.0,41.989999999999995,,,,1760267827.9116478,0
1.0,33.7575,0.19213,34.61,,1760267828.0389204,0
1.0,33.1425,,,,1760267828.1661932,0
1.0,10.97625,0.188288,34.61,,1760267828.2934659,0
1.0,-11.16875,,,,1760267828.4207387,0
1.0,-36.596666666666664,0.188288,34.61,,1760267828.5480113,0
1.0,-57.86750000000001,,,,1760267828.6752841,0
1.0,30.255000000000003,0.188288,34.61,,1760267828.8025568,0
1.0,34.02375,,,,1760267828.9298296,0
1.0,28.3175,0.190849,34.61,,1760267829.0571022,0
1.0,25.177500000000002,,,,1760267829.184375,0
1.0,1.6350000000000005,0.19213,34.59,,1760267829.3116477,0
1.0,-20.526666666666667,,,,1760267829.4389205,0
1.0,-44.8275,0.19213,34.59,,1760267829.566193,0
1.0,-71.17375,,,,1760267829.693466,0
1.0,16.46,0.188288,34.59,,1760267829.8207386,0
1.0,40.17875,,,,1760267829.9480114,0
1.0,30.49125,0.188288,34.59,,1760267830.075284,0
1.0,30.07125,,,,1760267830.2025568,0
1.0,4.534444444444444,0.188288,34.59,,1760267830.3298295,0
1.0,-17.8125,,,,1760267830.4571023,0
1.0,-41.040000000000006,0.19213,34.59,,1760267830.584375,0
1.0,-74.78375,,,,1760267830.7116477,0
1.0,2.1224999999999987,0.19213,34.59,,1760267830.8389204,0
1.0,44.25125,,,,1760267830.9661932,0
1.0,30.43125,0.190849,34.59,,1760267831.0934658,0
1.0,33.43111111111111,,,,1760267831.2207386,0
1.0,8.4125,0.19213,34.59,,1760267831.3480113,0
1.0,-15.632499999999999,,,,1760267831.475284,0
1.0,-37.81375,0.189569,34.59,,1760267831.6025567,0
1.0,-66.3475,,,,1760267831.7298295,0
1.0,5.36875,0.189569,34.59,,1760267831.8571022,0
1.0,41.705,,,,1760267831.984375,0
1.0,26.10777777777778,0.190849,34.59,,1760267832.1116478,0
1.0,28.105,,,,1760267832.2389205,0
1.0,-0.9562499999999998,0.19213,34.59,,1760267832.3661933,0
1.0,-32.11875,,,,1760267832.493466,0
1.0,-63.4975,0.19213,34.59,,1760267832.6207387,0
1.0,-64.0475,,,,1760267832.7480114,0
1.0,42.80555555555556,0.19213,34.59,,1760267832.8752842,0
1.0,52.5975,0.188288,34.59,,1760267833.0025568,0
1.0,53.6225,,,,1760267833.1298296,0
1.0,27.825000000000003,0.189569,34.57,,1760267833.2571023,0
1.0,-5.994999999999999,,,,1760267833.384375,0
1.0,-31.995,0.188288,34.57,,1760267833.5116477,0
1.0,-63.4925,,,,1760267833.6389205,0
1.0,-28.35444444444444,0.19213,34.57,,1760267833.7661932,0
1.0,50.28375,,,,1760267833.893466,0
1.0,37.0075,0.193411,34.57,,1760267834.0207386,0
1.0,41.25875,,,,1760267834.1480114,0
1.0,21.363750000000003,0.19213,34.57,,1760267834.275284,0
1.0,-4.02625,,,,1760267834.402557,0
1.0,-26.7575,0.189569,34.57,,1760267834.5298295,0
1.0,-59.341111111111104,,,,1760267834.6571023,0
1.0,-44.1525,0.189569,34.57,,1760267834.784375,0
1.0,44.723749999999995,,,,1760267834.9116478,0
1.0,31.316249999999997,0.189569,34.57,,1760267835.0389204,0
1.0,35.53875,,,,1760267835.1661932,0
1.0,21.6,0.19213,34.57,,1760267835.2934659,0
1.0,-4.936249999999999,,,,1760267835.4207387,0
1.0,-29.12222222222222,0.19213,34.57,,1760267835.5480113,0
1.0,-57.78125,,,,1760267835.6752841,0
1.0,-6.08,0.190849,34.57,,1760267835.8025568,0
1.0,42.0275,,,,1760267835.9298296,0
1.0,25.590000000000003,0.189569,34.57,,1760267836.0571022,0
1.0,31.35625,,,,1760267836.184375,0
1.0,4.3475,0.190849,34.57,,1760267836.3116477,0
1.0,-26.008888888888887,,,,1760267836.4389205,0
1.0,-53.401250000000005,0.188288,34.57,,1760267836.566193,0
1.0,-22.033749999999998,,,,1760267836.693466,0
1.0,43.6425,0.190849,34.57,,1760267836.8207386,0
1.0,29.5175,,,,1760267836.9480114,0
1.0,32.3375,0.19213,34.57,,1760267837.075284,0
1.0,8.962499999999999,,,,1760267837.2025568,0
1.0,-19.645555555555557,0.19213,34.55,,1760267837.3298295,0
1.0,-45.20375,,,,1760267837.4571023,0
1.0,-51.125,0.208782,34.55,,1760267837.584375,0
1.0,35.69625,,,,1760267837.7116477,0
1.0,35.2875,0.189569,34.55,,1760267837.8389204,0
1.0,32.20875,,,,1760267837.9661932,0
1.0,18.90375,0.190849,34.55,,1760267838.0934658,0
1.0,-8.464444444444444,,,,1760267838.2207386,0
1.0,-30.77625,0.19213,34.57,,1760267838.3480113,0
1.0,-55.385,,,,1760267838.475284,0
1.0,-0.3949999999999996,0.19213,34.57,,1760267838.6025567,0
1.0,33.0175,,,,1760267838.7298295,0
1.0,26.925,0.19213,34.57,,1760267838.8571022,0
1.0,24.43875,,,,1760267838.984375,0
1.0,2.191111111111111,0.19213,34.57,,1760267839.1116478,0
1.0,-18.958750000000002,,,,1760267839.2389205,0
1.0,-39.60625,0.189569,34.57,,1760267839.3661933,0
1.0,-22.509999999999998,,,,1760267839.493466,0
1.0,29.88375,0.189569,34.57,,1760267839.6207387,0
1.0,20.82,,,,1760267839.7480114,0
1.0,19.551111111111112,0.190849,34.57,,1760267839.8752842,0
1.0,-0.9937499999999995,0.193411,34.57,,1760267840.0025568,0
1.0,-18.85375,,,,1760267840.1298296,0
1.0,-37.120000000000005,0.19213,34.55,,1760267840.2571023,0
1.0,-46.9375,,,,1760267840.384375,0
1.0,24.177500000000002,0.190849,34.55,,1760267840.5116477,0
1.0,27.7475,,,,1760267840.6389205,0
1.0,25.10111111111111,0.189569,34.55,,1760267840.7661932,0
1.0,13.12125,,,,1760267840.893466,0
1.0,-6.59,0.189569,34.55,,1760267841.0207386,0
1.0,-21.9825,,,,1760267841.1480114,0
1.0,-45.723749999999995,0.190849,34.55,,1760267841.275284,0
1.0,-51.44875,,,,1760267841.402557,0
1.0,25.68,0.19213,34.55,,1760267841.5298295,0
1.0,31.99888888888889,,,,1760267841.6571023,0
1.0,31.3825,0.190849,34.55,,1760267841.784375,0
1.0,19.14375,,,,1760267841.9116478,0
1.0,-2.5149999999999997,0.19213,34.55,,1760267842.0389204,0
1.0,-21.473750000000003,,,,1760267842.1661932,0
1.0,-44.1225,0.189569,34.55,,1760267842.2934659,0
1.0,-62.15375,,,,1760267842.4207387,0
1.0,26.583333333333332,0.188288,34.55,,1760267842.5480113,0
1.0,36.31875,,,,1760267842.6752841,0
1.0,37.13375,0.190849,34.55,,1760267842.8025568,0
1.0,26.83875,,,,1760267842.9298296,0
1.0,3.4349999999999996,0.19213,34.55,,1760267843.0571022,0
1.0,-15.49625,,,,1760267843.184375,0
1.0,-35.92,0.190849,34.55,,1760267843.3116477,0
1.0,-59.45666666666667,,,,1760267843.4389205,0
1.0,24.2,0.19213,34.55,,1760267843.566193,0
1.0,35.6775,,,,1760267843.693466,0
1.0,34.588750000000005,0.188288,34.55,,1760267843.8207386,0
1.0,31.11625,,,,1760267843.9480114,0
1.0,4.784999999999999,0.188288,34.55,,1760267844.075284,0
1.0,-16.645000000000003,,,,1760267844.2025568,0
1.0,-40.553333333333335,0.193411,34.55,,1760267844.3298295,0
1.0,-58.80125,,,,1760267844.4571023,0
1.0,30.911249999999995,0.190849,34.55,,1760267844.584375,0
1.0,36.82875,,,,1760267844.7116477,0
1.0,32.99125,0.19213,34.55,,1760267844.8389204,0
1.0,26.306250000000002,,,,1760267844.9661932,0
1.0,1.96375,0.19213,34.55,,1760267845.0934658,0
1.0,-18.223333333333333,,,,1760267845.2207386,0
1.0,-39.973749999999995,0.189569,34.55,,1760267845.3480113,0
1.0,-61.58125,,,,1760267845.475284,0
1.0,24.588749999999997,0.188288,34.55,,1760267845.6025567,0
1.0,34.4925,,,,1760267845.7298295,0
1.0,30.386249999999997,0.190849,34.55,,1760267845.8571022,0
1.0,27.31625,,,,1760267845.984375,0
1.0,2.352222222222222,0.189569,34.55,,1760267846.1116478,0
1.0,-18.1875,,,,1760267846.2389205,0
1.0,-40.057500000000005,0.193411,34.55,,1760267846.3661933,0
1.0,-63.1775,,,,1760267846.493466,0
1.0,19.735,0.19213,34.55,,1760267846.6207387,0
1.0,33.30875,,,,1760267846.7480114,0
1.0,28.462222222222223,0.189569,34.55,,1760267846.8752842,0
1.0,24.5625,0.189569,34.55,,1760267847.0025568,0
1.0,-1.8687499999999995,,,,1760267847.1298296,0
1.0,-23.32,0.189569,34.55,,1760267847.2571023,0
1.0,-45.94375,,,,1760267847.384375,0
1.0,-43.16875,0.19213,34.55,,1760267847.5116477,0
1.0,38.35875,,,,1760267847.6389205,0
1.0,23.994444444444444,0.19213,34.55,,1760267847.7661932,0
1.0,26.01875,,,,1760267847.893466,0
1.0,6.2387500000000005,0.190849,34.55,,1760267848.0207386,0
1.0,-25.1575,,,,1760267848.1480114,0
1.0,-52.64375,0.189569,34.55,,1760267848.275284,0
1.0,-10.688749999999997,,,,1760267848.402557,0
1.0,36.14875,0.188288,34.55,,1760267848.5298295,0
1.0,18.017777777777777,,,,1760267848.6571023,0
1.0,17.375,0.189569,34.55,,1760267848.784375,0
1.0,-12.174999999999999,,,,1760267848.9116478,0
1.0,-48.42375,0.19213,34.55,,1760267849.0389204,0
1.0,-13.762499999999998,,,,1760267849.1661932,0
1.0,38.54625,0.190849,34.55,,1760267849.2934659,0
1.0,21.7175,,,,1760267849.4207387,0
1.0,18.284444444444443,0.190849,34.55,,1760267849.5480113,0
1.0,-19.32875,,,,1760267849.6752841,0
1.0,-60.55375,0.189569,34.55,,1760267849.8025568,0
1.0,-75.80125000000001,,,,1760267849.9298296,0
1.0,45.02499999999999,0.188288,34.55,,1760267850.0571022,0
1.0,66.855,,,,1760267850.184375,0
1.0,59.74625,0.189569,34.55,,1760267850.3116477,0
1.0,48.153333333333336,,,,1760267850.4389205,0
1.0,-2.85625,0.190849,34.55,,1760267850.566193,0
1.0,-22.533749999999998,,,,1760267850.693466,0
1.0,-60.40125,0.19213,34.55,,1760267850.8207386,0
1.0,-14.36875,,,,1760267850.9480114,0
1.0,34.4725,0.190849,34.55,,1760267851.075284,0
1.0,30.478749999999998,,,,1760267851.2025568,0
1.0,27.004444444444445,0.190849,34.53,,1760267851.3298295,0
1.0,4.133750000000001,,,,1760267851.4571023,0
1.0,-15.469999999999999,0.189569,34.53,,1760267851.584375,0
1.0,-37.345,,,,1760267851.7116477,0
1.0,-56.831250000000004,0.189569,34.53,,1760267851.8389204,0
1.0,21.021250000000002,,,,1760267851.9661932,0
1.0,30.4925,0.19213,34.53,,1760267852.0934658,0
1.0,26.040000000000003,,,,1760267852.2207386,0
1.0,16.86,0.190849,34.53,,1760267852.3480113,0
1.0,-5.18375,,,,1760267852.475284,0
1.0,-23.55125,0.193411,34.53,,1760267852.6025567,0
1.0,-44.31875,,,,1760267852.7298295,0
1.0,-4.798749999999998,0.189569,34.53,,1760267852.8571022,0
1.0,24.745000000000005,,,,1760267852.984375,0
1.0,16.793333333333337,0.189569,34.53,,1760267853.1116478,0
1.0,13.527500000000002,,,,1760267853.2389205,0
1.0,-10.026250000000001,0.188288,34.53,,1760267853.3661933,0
1.0,-29.24625,,,,1760267853.493466,0
1.0,-50.93875,0.190849,34.53,,1760267853.6207387,0
1.0,8.471250000000001,,,,1760267853.7480114,0
1.0,27.81888888888889,0.19213,34.53,,1760267853.8752842,0
1.0,23.39,0.19213,34.53,,1760267854.0025568,0
1.0,15.27625,,,,1760267854.1298296,0
1.0,-9.13375,0.19213,34.53,,1760267854.2571023,0
1.0,-31.46,,,,1760267854.384375,0
1.0,-57.971250000000005,0.188288,34.53,,1760267854.5116477,0
1.0,-4.008749999999999,,,,1760267854.6389205,0
1.0,31.945555555555554,0.189569,34.53,,1760267854.7661932,0
1.0,27.348750000000003,,,,1760267854.893466,0
1.0,20.12625,0.190849,34.53,,1760267855.0207386,0
1.0,-7.515000000000001,,,,1760267855.1480114,0
1.0,-31.45625,0.19213,34.55,,1760267855.275284,0
1.0,-58.93,,,,1760267855.402557,0
1.0,-9.258750000000001,0.19213,34.55,,1760267855.5298295,0
1.0,37.3688888888889,,,,1760267855.6571023,0
1.0,34.135,0.19213,34.55,,1760267855.784375,0
1.0,28.057499999999997,,,,1760267855.9116478,0
1.0,-0.6424999999999996,0.189569,34.55,,1760267856.0389204,0
1.0,-27.6575,,,,1760267856.1661932,0
1.0,-57.465,0.189569,34.53,,1760267856.2934659,0
1.0,-0.4450000000000003,,,,1760267856.4207387,0
1.0,42.471111111111114,0.19213,34.53,,1760267856.5480113,0
1.0,38.431250000000006,,,,1760267856.6752841,0
1.0,31.338750000000005,0.193411,34.53,,1760267856.8025568,0
1.0,5.3375,,,,1760267856.9298296,0
1.0,-18.79625,0.19213,34.53,,1760267857.0571022,0
1.0,-45.065,,,,1760267857.184375,0
1.0,-59.902499999999996,0.19213,34.55,,1760267857.3116477,0
1.0,31.525555555555556,,,,1760267857.4389205,0
1.0,42.08,0.189569,34.55,,1760267857.566193,0
1.0,39.075,,,,1760267857.693466,0
1.0,23.727500000000003,0.190849,34.55,,1760267857.8207386,0
1.0,0.37250000000000005,,,,1760267857.9480114,0
1.0,-17.6575,0.190849,34.55,,1760267858.075284,0
1.0,-41.0775,,,,1760267858.2025568,0
1.0,-62.56333333333334,0.19213,34.55,,1760267858.3298295,0
1.0,23.595,,,,1760267858.4571023,0
1.0,37.69,0.193411,34.55,,1760267858.584375,0
1.0,35.55625,,,,1760267858.7116477,0
1.0,26.91625,0.193411,34.55,,1760267858.8389204,0
1.0,4.47375,,,,1760267858.9661932,0
1.0,-13.775,0.19213,34.55,,1760267859.0934658,0
1.0,-36.35444444444444,,,,1760267859.2207386,0
1.0,-57.11625,0.189569,34.53,,1760267859.3480113,0
1.0,20.263749999999998,,,,1760267859.475284,0
1.0,32.3,0.189569,34.53,,1760267859.6025567,0
1.0,28.775,,,,1760267859.7298295,0
1.0,20.36,0.19213,34.53,,1760267859.8571022,0
1.0,-2.1975000000000002,,,,1760267859.984375,0
1.0,-24.326666666666668,0.193411,34.53,,1760267860.1116478,0
1.0,-50.48125,,,,1760267860.2389205,0
1.0,-26.87375,0.19213,34.5,,1760267860.3661933,0
1.0,29.92125,,,,1760267860.493466,0
1.0,21.79875,0.19213,34.5,,1760267860.6207387,0
1.0,21.731250000000003,,,,1760267860.7480114,0
1.0,-0.7011111111111111,0.190849,34.5,,1760267860.8752842,0
1.0,-26.718750000000004,0.189569,34.5,,1760267861.0025568,0
1.0,-50.9125,,,,1760267861.1298296,0
1.0,9.61125,0.19213,34.5,,1760267861.2571023,0
1.0,28.5675,,,,1760267861.384375,0
1.0,21.76,0.190849,34.5,,1760267861.5116477,0
1.0,13.6825,,,,1760267861.6389205,0
1.0,-18.903333333333332,0.193411,34.5,,1760267861.7661932,0
1.0,-50.22624999999999,,,,1760267861.893466,0
1.0,-11.371249999999996,0.19213,34.5,,1760267862.0207386,0
1.0,36.9675,,,,1760267862.1480114,0
1.0,30.71875,0.190849,34.5,,1760267862.275284,0
1.0,28.5025,,,,1760267862.402557,0
1.0,1.0987499999999994,0.190849,34.5,,1760267862.5298295,0
1.0,-29.08,,,,1760267862.6571023,0
1.0,-61.883750000000006,0.189569,34.5,,1760267862.784375,0
1.0,-9.895,,,,1760267862.9116478,0
1.0,42.5925,0.193411,34.5,,1760267863.0389204,0
1.0,37.779999999999994,,,,1760267863.1661932,0
1.0,35.1675,0.193411,34.53,,1760267863.2934659,0
1.0,9.72875,,,,1760267863.4207387,0
1.0,-17.992222222222225,0.19213,34.53,,1760267863.5480113,0
1.0,-45.6,,,,1760267863.6752841,0
1.0,-64.08375000000001,0.190849,34.53,,1760267863.8025568,0
1.0,28.53625,,,,1760267863.9298296,0
1.0,42.2575,0.190849,34.53,,1760267864.0571022,0
1.0,38.88875,,,,1760267864.184375,0
1.0,29.36375,0.189569,34.5,,1760267864.3116477,0
1.0,4.5,,,,1760267864.4389205,0
1.0,-15.342500000000001,0.19213,34.5,,1760267864.566193,0
1.0,-39.377500000000005,,,,1760267864.693466,0
1.0,-69.18125,0.193411,34.5,,1760267864.8207386,0
1.0,-3.986250000000002,,,,1760267864.9480114,0
1.0,39.81,0.19213,34.5,,1760267865.075284,0
1.0,36.42375,,,,1760267865.2025568,0
1.0,32.71666666666667,0.19213,34.5,,1760267865.3298295,0
1.0,9.3825,,,,1760267865.4571023,0
1.0,-10.307500000000001,0.190849,34.5,,1760267865.584375,0
1.0,-29.78,,,,1760267865.7116477,0
1.0,-55.081250000000004,0.190849,34.5,,1760267865.8389204,0
1.0,-37.279999999999994,,,,1760267865.9661932,0
1.0,37.3375,0.193411,34.5,,1760267866.0934658,0
1.0,29.31555555555555,,,,1760267866.2207386,0
1.0,34.052499999999995,0.195973,34.5,,1760267866.3480113,0
1.0,13.701250000000002,,,,1760267866.475284,0
1.0,-10.39875,0.194692,34.5,,1760267866.6025567,0
1.0,-32.495000000000005,,,,1760267866.7298295,0
1.0,-60.09625,0.193411,34.5,,1760267866.8571022,0
1.0,-1.9737500000000026,,,,1760267866.984375,0
1.0,36.925555555555555,0.19213,34.5,,1760267867.1116478,0
1.0,29.22625,,,,1760267867.2389205,0
1.0,27.995,0.190849,34.53,,1760267867.3661933,0
1.0,2.335000000000001,,,,1760267867.493466,0
1.0,-21.597500000000004,0.190849,34.53,,1760267867.6207387,0
1.0,-46.12125,,,,1760267867.7480114,0
1.0,-65.16111111111111,0.194692,34.53,,1760267867.8752842,0
1.0,30.50875,0.194692,34.53,,1760267868.0025568,0
1.0,39.54,,,,1760267868.1298296,0
1.0,38.0775,0.193411,34.5,,1760267868.2571023,0
1.0,27.05875,,,,1760267868.384375,0
1.0,-3.9712500000000004,0.193411,34.5,,1760267868.5116477,0
1.0,-31.0,,,,1760267868.6389205,0
1.0,-63.405555555555566,0.190849,34.5,,1760267868.7661932,0
1.0,-8.823749999999997,,,,1760267868.893466,0
1.0,38.618750000000006,0.190849,34.5,,1760267869.0207386,0
1.0,33.045,,,,1760267869.1480114,0
1.0,29.74625,0.190849,34.49,,1760267869.275284,0
1.0,1.995,,,,1760267869.402557,0
1.0,-26.548750000000002,0.193411,34.49,,1760267869.5298295,0
1.0,-54.57333333333333,,,,1760267869.6571023,0
1.0,7.481249999999999,0.193411,34.49,,1760267869.784375,0
1.0,34.43625,,,,1760267869.9116478,0
1.0,26.7775,0.19213,34.49,,1760267870.0389204,0
1.0,20.54,,,,1760267870.1661932,0
1.0,-12.823749999999999,0.190849,34.5,,1760267870.2934659,0
1.0,-41.113749999999996,,,,1760267870.4207387,0
1.0,-26.132222222222225,0.190849,34.5,,1760267870.5480113,0
1.0,40.44875,,,,1760267870.6752841,0
1.0,34.53375,0.19213,34.5,,1760267870.8025568,0
1.0,31.655,,,,1760267870.9298296,0
1.0,5.82625,0.189569,34.5,,1760267871.0571022,0
1.0,-22.185000000000002,,,,1760267871.184375,0
1.0,-50.993750000000006,0.193411,34.53,,1760267871.3116477,0
1.0,-38.07888888888888,,,,1760267871.4389205,0
1.0,40.948750000000004,0.193411,34.53,,1760267871.566193,0
1.0,42.411249999999995,,,,1760267871.693466,0
1.0,36.42,0.193411,34.53,,1760267871.8207386,0
1.0,14.64875,,,,1760267871.9480114,0
1.0,-12.0275,0.190849,34.53,,1760267872.075284,0
1.0,-37.20125,,,,1760267872.2025568,0
1.0,-58.46555555555556,0.190849,34.5,,1760267872.3298295,0
1.0,22.861250000000005,,,,1760267872.4571023,0
1.0,38.01375,0.189569,34.5,,1760267872.584375,0
1.0,32.79,,,,1760267872.7116477,0
1.0,21.04625,0.19213,34.5,,1760267872.8389204,0
1.0,-5.553750000000001,,,,1760267872.9661932,0
1.0,-27.0975,0.193411,34.5,,1760267873.0934658,0
1.0,-51.64555555555555,,,,1760267873.2207386,0
1.0,4.873750000000001,0.19213,34.5,,1760267873.3480113,0
1.0,32.68375,,,,1760267873.475284,0
1.0,25.84375,0.19213,34.5,,1760267873.6025567,0
1.0,21.32125,,,,1760267873.7298295,0
1.0,-2.12,0.189569,34.5,,1760267873.8571022,0
1.0,-20.3725,,,,1760267873.984375,0
1.0,-44.642222222222216,0.189569,34.5,,1760267874.1116478,0
1.0,-54.16,,,,1760267874.2389205,0
1.0,27.27375,0.190849,34.5,,1760267874.3661933,0
1.0,34.85875,,,,1760267874.493466,0
1.0,30.635,0.194692,34.5,,1760267874.6207387,0
1.0,21.911250000000003,,,,1760267874.7480114,0
1.0,-1.0888888888888892,0.193411,34.5,,1760267874.8752842,0
1.0,-19.231250000000003,0.193411,34.5,,1760267875.0025568,0
1.0,-42.55625,,,,1760267875.1298296,0
1.0,-65.64875,0.190849,34.5,,1760267875.2571023,0
1.0,14.123750000000001,,,,1760267875.384375,0
1.0,34.239999999999995,0.190849,34.5,,1760267875.5116477,0
1.0,28.835,,,,1760267875.6389205,0
1.0,24.419999999999998,0.190849,34.5,,1760267875.7661932,0
1.0,0.8774999999999995,,,,1760267875.893466,0
1.0,-20.37875,0.211343,34.5,,1760267876.0207386,0
1.0,-45.265,,,,1760267876.1480114,0
1.0,-60.11,0.194692,34.5,,1760267876.275284,0
1.0,26.087500000000002,,,,1760267876.402557,0
1.0,34.11625,0.193411,34.5,,1760267876.5298295,0
1.0,31.441111111111113,,,,1760267876.6571023,0
1.0,17.08125,0.194692,34.5,,1760267876.784375,0
1.0,-11.681249999999999,,,,1760267876.9116478,0
1.0,-37.6775,0.190849,34.5,,1760267877.0389204,0
1.0,-58.7,,,,1760267877.1661932,0
1.0,25.661249999999995,0.190849,34.5,,1760267877.2934659,0
1.0,35.80875,,,,1760267877.4207387,0
1.0,31.81222222222223,0.190849,34.5,,1760267877.5480113,0
1.0,17.70375,,,,1760267877.6752841,0
1.0,-11.533750000000001,0.194692,34.5,,1760267877.8025568,0
1.0,-38.3125,,,,1760267877.9298296,0
1.0,-71.1175,0.194692,34.5,,1760267878.0571022,0
1.0,2.161249999999999,,,,1760267878.184375,0
1.0,45.120000000000005,0.194692,34.49,,1760267878.3116477,0
1.0,41.30555555555556,,,,1760267878.4389205,0
1.0,32.27125,0.190849,34.49,,1760267878.566193,0
1.0,1.88375,,,,1760267878.693466,0
1.0,-26.2425,0.190849,34.49,,1760267878.8207386,0
1.0,-56.57875,,,,1760267878.9480114,0
1.0,-44.3525,0.19213,34.49,,1760267879.075284,0
1.0,43.67875,,,,1760267879.2025568,0
1.0,41.81000000000001,0.194692,34.5,,1760267879.3298295,0
1.0,38.99875,,,,1760267879.4571023,0
1.0,17.04,0.194692,34.5,,1760267879.584375,0
1.0,-9.4125,,,,1760267879.7116477,0
1.0,-34.801249999999996,0.194692,34.5,,1760267879.8389204,0
1.0,-66.74000000000001,,,,1760267879.9661932,0
1.0,-12.104999999999999,0.190849,34.5,,1760267880.0934658,0
1.0,40.284444444444446,,,,1760267880.2207386,0
1.0,35.16,0.190849,34.49,,1760267880.3480113,0
1.0,29.8625,,,,1760267880.475284,0
1.0,3.4799999999999995,0.190849,34.49,,1760267880.6025567,0
1.0,-21.85375,,,,1760267880.7298295,0
1.0,-48.57249999999999,0.19213,34.49,,1760267880.8571022,0
1.0,-20.365,,,,1760267880.984375,0
1.0,37.37222222222223,0.194692,34.49,,1760267881.1116478,0
1.0,27.17875,,,,1760267881.2389205,0
1.0,22.24625,0.194692,34.5,,1760267881.3661933,0
1.0,-7.09,,,,1760267881.493466,0
1.0,-36.64125,0.190849,34.5,,1760267881.6207387,0
1.0,-51.8425,,,,1760267881.7480114,0
1.0,28.17777777777778,0.190849,34.5,,1760267881.8752842,0
1.0,31.572499999999998,0.190849,34.5,,1760267882.0025568,0
1.0,21.4675,,,,1760267882.1298296,0
1.0,-0.46875,0.194692,34.49,,1760267882.2571023,0
1.0,-33.51,,,,1760267882.384375,0
1.0,-39.68875,0.193411,34.49,,1760267882.5116477,0
1.0,34.378750000000004,,,,1760267882.6389205,0
1.0,30.445555555555554,0.193411,34.49,,1760267882.7661932,0
1.0,17.87625,,,,1760267882.893466,0
1.0,-7.145,0.190849,34.49,,1760267883.0207386,0
1.0,-38.97875,,,,1760267883.1480114,0
1.0,-35.84375,0.193411,34.5,,1760267883.275284,0
1.0,32.4225,,,,1760267883.402557,0
1.0,24.55375,0.190849,34.5,,1760267883.5298295,0
1.0,17.72222222222222,,,,1760267883.6571023,0
1.0,-7.83375,0.193411,34.5,,1760267883.784375,0
1.0,-36.43,,,,1760267883.9116478,0
1.0,-39.24375,0.194692,34.5,,1760267884.0389204,0
1.0,32.02625,,,,1760267884.1661932,0
1.0,24.761250000000004,0.193411,34.5,,1760267884.2934659,0
1.0,21.915,,,,1760267884.4207387,0
1.0,-3.6955555555555546,0.19213,34.5,,1760267884.5480113,0
1.0,-35.94,,,,1760267884.6752841,0
1.0,-58.28375,0.190849,34.5,,1760267884.8025568,0
1.0,21.05625,,,,1760267884.9298296,0
1.0,40.614999999999995,0.193411,34.5,,1760267885.0571022,0
1.0,34.3625,,,,1760267885.184375,0
1.0,23.240000000000002,0.193411,34.5,,1760267885.3116477,0
1.0,-6.4911111111111115,,,,1760267885.4389205,0
1.0,-31.535,0.193411,34.5,,1760267885.566193,0
1.0,-60.82625,,,,1760267885.693466,0
1.0,-28.093749999999996,0.195973,34.5,,1760267885.8207386,0
1.0,42.09125,,,,1760267885.9480114,0
1.0,35.72625,0.194692,34.5,,1760267886.075284,0
1.0,32.5,,,,1760267886.2025568,0
1.0,9.216666666666667,0.19213,34.5,,1760267886.3298295,0
1.0,-16.3625,,,,1760267886.4571023,0
1.0,-38.927499999999995,0.19213,34.5,,1760267886.584375,0
1.0,-61.653749999999995,,,,1760267886.7116477,0
1.0,23.71125,0.193411,34.5,,1760267886.8389204,0
1.0,34.3775,,,,1760267886.9661932,0
1.0,30.26875,0.193411,34.5,,1760267887.0934658,0
1.0,17.940000000000005,,,,1760267887.2207386,0
1.0,-12.853750000000002,0.194692,34.5,,1760267887.3480113,0
1.0,-38.56125,,,,1760267887.475284,0
1.0,-67.22500000000001,0.194692,34.5,,1760267887.6025567,0
1.0,10.104999999999999,,,,1760267887.7298295,0
1.0,41.70375,0.19213,34.5,,1760267887.8571022,0
1.0,34.35874999999999,,,,1760267887.984375,0
1.0,27.945555555555554,0.19213,34.5,,1760267888.1116478,0
1.0,-1.9049999999999998,,,,1760267888.2389205,0
1.0,-27.14875,0.19213,34.49,,1760267888.3661933,0
1.0,-56.18,,,,1760267888.493466,0
1.0,-46.97875,0.194692,34.49,,1760267888.6207387,0
1.0,40.19375,,,,1760267888.7480114,0
1.0,34.75333333333334,0.193411,34.49,,1760267888.8752842,0
1.0,32.74125,0.194692,34.49,,1760267889.0025568,0
1.0,9.325000000000001,,,,1760267889.1298296,0
1.0,-19.42625,0.190849,34.49,,1760267889.2571023,0
1.0,-45.7475,,,,1760267889.384375,0
1.0,-44.87625,0.190849,34.49,,1760267889.5116477,0
1.0,38.14125,,,,1760267889.6389205,0
1.0,29.54222222222222,0.208782,34.49,,1760267889.7661932,0
1.0,27.96625,,,,1760267889.893466,0
1.0,4.3725000000000005,0.194692,34.49,,1760267890.0207386,0
1.0,-24.5175,,,,1760267890.1480114,0
1.0,-52.8,0.195973,34.49,,1760267890.275284,0
1.0,0.353749999999998,,,,1760267890.402557,0
1.0,36.42125,0.194692,34.49,,1760267890.5298295,0
1.0,27.60111111111111,,,,1760267890.6571023,0
1.0,22.408749999999998,0.194692,34.49,,1760267890.784375,0
1.0,-8.47625,,,,1760267890.9116478,0
1.0,-36.215,0.193411,34.49,,1760267891.0389204,0
1.0,-69.12625,,,,1760267891.1661932,0
1.0,-5.702499999999997,0.193411,34.5,,1760267891.2934659,0
1.0,46.9075,,,,1760267891.4207387,0
1.0,44.47333333333333,0.194692,34.5,,1760267891.5480113,0
1.0,34.037499999999994,,,,1760267891.6752841,0
1.0,2.4800000000000004,0.194692,34.5,,1760267891.8025568,0
1.0,-26.637500000000003,,,,1760267891.9298296,0
1.0,-57.926249999999996,0.195973,34.5,,1760267892.0571022,0
1.0,-59.38875,,,,1760267892.184375,0
1.0,19.3075,0.194692,34.49,,1760267892.3116477,0
1.0,34.532222222222224,,,,1760267892.4389205,0
1.0,57.56125,0.195973,34.49,,1760267892.566193,0
1.0,34.41375,,,,1760267892.693466,0
1.0,0.05500000000000016,0.193411,34.49,,1760267892.8207386,0
1.0,-27.72,,,,1760267892.9480114,0
1.0,-57.74875,0.19213,34.49,,1760267893.075284,0
1.0,7.99,,,,1760267893.2025568,0
1.0,35.010000000000005,0.19213,34.49,,1760267893.3298295,0
1.0,30.012500000000003,,,,1760267893.4571023,0
1.0,22.535,0.194692,34.49,,1760267893.584375,0
1.0,-3.380000000000001,,,,1760267893.7116477,0
1.0,-24.43625,0.195973,34.49,,1760267893.8389204,0
1.0,-49.35125,,,,1760267893.9661932,0
1.0,-45.7,0.194692,34.49,,1760267894.0934658,0
1.0,35.522222222222226,,,,1760267894.2207386,0
1.0,35.54875,0.193411,34.49,,1760267894.3480113,0
1.0,30.94375,,,,1760267894.475284,0
1.0,13.4775,0.19213,34.49,,1760267894.6025567,0
1.0,-9.852500000000001,,,,1760267894.7298295,0
1.0,-30.445,0.19213,34.49,,1760267894.8571022,0
1.0,-59.35625,,,,1760267894.984375,0
1.0,-29.099999999999998,0.195973,34.49,,1760267895.1116478,0
1.0,41.8825,,,,1760267895.2389205,0
1.0,35.551249999999996,0.213905,34.49,,1760267895.3661933,0
1.0,29.5125,,,,1760267895.493466,0
1.0,7.8625,0.195973,34.49,,1760267895.6207387,0
1.0,-17.82875,,,,1760267895.7480114,0
1.0,-42.16888888888889,0.195973,34.49,,1760267895.8752842,0
1.0,-56.848749999999995,0.193411,34.49,,1760267896.0025568,0
1.0,28.08,,,,1760267896.1298296,0
1.0,31.515,0.19213,34.49,,1760267896.2571023,0
1.0,28.197499999999998,,,,1760267896.384375,0
1.0,11.92375,0.19213,34.49,,1760267896.5116477,0
1.0,-19.896250000000002,,,,1760267896.6389205,0
1.0,-50.01777777777778,0.194692,34.49,,1760267896.7661932,0
1.0,-35.20625,,,,1760267896.893466,0
1.0,40.161249999999995,0.195973,34.49,,1760267897.0207386,0
1.0,37.29125,,,,1760267897.1480114,0
1.0,33.93625,0.194692,34.49,,1760267897.275284,0
1.0,12.6525,,,,1760267897.402557,0
1.0,-16.236250000000002,0.19213,34.49,,1760267897.5298295,0
1.0,-46.95444444444445,,,,1760267897.6571023,0
1.0,-76.715,0.193411,34.49,,1760267897.784375,0
1.0,19.37125,,,,1760267897.9116478,0
1.0,49.435,0.19213,34.49,,1760267898.0389204,0
1.0,42.78625,,,,1760267898.1661932,0
1.0,30.32875,0.195973,34.47,,1760267898.2934659,0
1.0,0.1275000000000004,,,,1760267898.4207387,0
1.0,-32.47,0.195973,34.47,,1760267898.5480113,0
1.0,-66.33625,,,,1760267898.6752841,0
1.0,2.702499999999999,0.197254,34.47,,1760267898.8025568,0
1.0,44.70625,,,,1760267898.9298296,0
1.0,35.753750000000004,0.195973,34.47,,1760267899.0571022,0
1.0,28.302500000000002,,,,1760267899.184375,0
1.0,-1.4275000000000002,0.193411,34.49,,1760267899.3116477,0
1.0,-30.686666666666667,,,,1760267899.4389205,0
1.0,-60.83375,0.193411,34.49,,1760267899.566193,0
1.0,16.408749999999998,,,,1760267899.693466,0
1.0,43.0375,0.193411,34.49,,1760267899.8207386,0
1.0,34.14875,,,,1760267899.9480114,0
1.0,26.832500000000003,0.197254,34.49,,1760267900.075284,0
1.0,-0.4975000000000005,,,,1760267900.2025568,0
1.0,-25.88222222222222,0.195973,34.47,,1760267900.3298295,0
1.0,-54.88875,,,,1760267900.4571023,0
1.0,-59.07,0.195973,34.47,,1760267900.584375,0
1.0,35.963750000000005,,,,1760267900.7116477,0
1.0,43.40875,0.195973,34.47,,1760267900.8389204,0
1.0,35.378750000000004,,,,1760267900.9661932,0
1.0,20.302500000000002,0.193411,34.47,,1760267901.0934658,0
1.0,-9.575555555555557,,,,1760267901.2207386,0
1.0,-36.518750000000004,0.193411,34.47,,1760267901.3480113,0
1.0,-62.735,,,,1760267901.475284,0
1.0,14.440000000000001,0.193411,34.47,,1760267901.6025567,0
1.0,39.682500000000005,,,,1760267901.7298295,0
1.0,31.5825,0.197254,34.47,,1760267901.8571022,0
1.0,23.1025,,,,1760267901.984375,0
1.0,-6.448888888888888,0.195973,34.47,,1760267902.1116478,0
1.0,-27.782500000000002,,,,1760267902.2389205,0
1.0,-56.0,0.197254,34.47,,1760267902.3661933,0
1.0,-14.3025,,,,1760267902.493466,0
1.0,40.542500000000004,0.193411,34.47,,1760267902.6207387,0
1.0,31.363750000000003,,,,1760267902.7480114,0
1.0,28.724444444444444,0.194692,34.47,,1760267902.8752842,0
1.0,6.3812500000000005,0.193411,34.47,,1760267903.0025568,0
1.0,-16.5425,,,,1760267903.1298296,0
1.0,-38.665000000000006,0.195973,34.45,,1760267903.2571023,0
1.0,-68.65625,,,,1760267903.384375,0
1.0,-13.523750000000001,0.195973,34.45,,1760267903.5116477,0
1.0,42.34125,,,,1760267903.6389205,0
1.0,36.08111111111111,0.195973,34.45,,1760267903.7661932,0
1.0,31.622500000000002,,,,1760267903.893466,0
1.0,7.92,0.195973,34.45,,1760267904.0207386,0
1.0,-13.042500000000002,,,,1760267904.1480114,0
1.0,-34.64,0.194692,34.47,,1760267904.275284,0
1.0,-64.18249999999999,,,,1760267904.402557,0
1.0,-9.855,0.193411,34.47,,1760267904.5298295,0
1.0,39.75,,,,1760267904.6571023,0
1.0,30.21125,0.193411,34.47,,1760267904.784375,0
1.0,28.99875,,,,1760267904.9116478,0
1.0,1.2712499999999993,0.197254,34.47,,1760267905.0389204,0
1.0,-22.428749999999997,,,,1760267905.1661932,0
1.0,-47.011250000000004,0.197254,34.47,,1760267905.2934659,0
1.0,-61.8,,,,1760267905.4207387,0
1.0,35.61222222222222,0.195973,34.47,,1760267905.5480113,0
1.0,37.6375,,,,1760267905.6752841,0
1.0,36.3975,0.195973,34.47,,1760267905.8025568,0
1.0,22.2125,,,,1760267905.9298296,0
1.0,-8.325000000000001,0.193411,34.47,,1760267906.0571022,0
1.0,-35.542500000000004,,,,1760267906.184375,0
1.0,-69.75625,0.193411,34.49,,1760267906.3116477,0
1.0,-32.168888888888894,,,,1760267906.4389205,0
1.0,47.21875,0.193411,34.49,,1760267906.566193,0
1.0,40.915,,,,1760267906.693466,0
1.0,37.3575,0.195973,34.49,,1760267906.8207386,0
1.0,9.21375,,,,1760267906.9480114,0
1.0,-23.759999999999998,0.197254,34.49,,1760267907.075284,0
1.0,-52.99875,,,,1760267907.2025568,0
1.0,-33.41444444444445,0.194692,34.47,,1760267907.3298295,0
1.0,46.1825,,,,1760267907.4571023,0
1.0,34.04875,0.193411,34.47,,1760267907.584375,0
1.0,32.065,,,,1760267907.7116477,0
1.0,4.0287500000000005,0.193411,34.47,,1760267907.8389204,0
1.0,-30.52875,,,,1760267907.9661932,0
1.0,-65.46000000000001,0.193411,34.47,,1760267908.0934658,0
1.0,-17.11888888888889,,,,1760267908.2207386,0
1.0,49.3725,0.194692,34.45,,1760267908.3480113,0
1.0,42.353750000000005,,,,1760267908.475284,0
1.0,35.557500000000005,0.195973,34.45,,1760267908.6025567,0
1.0,5.27375,,,,1760267908.7298295,0
1.0,-27.03125,0.195973,34.45,,1760267908.8571022,0
1.0,-61.32375,,,,1760267908.984375,0
1.0,-12.220000000000002,0.213905,34.45,,1760267909.1116478,0
1.0,48.485,,,,1760267909.2389205,0
1.0,41.725,0.194692,34.47,,1760267909.3661933,0
1.0,32.35375,,,,1760267909.493466,0
1.0,4.47625,0.194692,34.47,,1760267909.6207387,0
1.0,-24.4975,,,,1760267909.7480114,0
1.0,-56.35,0.194692,34.47,,1760267909.8752842,0
1.0,-1.9699999999999989,0.197254,34.47,,1760267910.0025568,0
1.0,36.848749999999995,,,,1760267910.1298296,0
1.0,31.11,0.197254,34.47,,1760267910.2571023,0
1.0,27.87125,,,,1760267910.384375,0
1.0,-0.4325000000000001,0.198535,34.47,,1760267910.5116477,0
1.0,-27.103749999999998,,,,1760267910.6389205,0
1.0,-55.54888888888888,0.195973,34.47,,1760267910.7661932,0
1.0,5.51,,,,1760267910.893466,0
1.0,36.71,0.194692,34.47,,1760267911.0207386,0
1.0,28.53125,,,,1760267911.1480114,0
1.0,19.42,0.195973,34.47,,1760267911.275284,0
1.0,-2.2937499999999997,,,,1760267911.402557,0
1.0,-23.8925,0.193411,34.47,,1760267911.5298295,0
1.0,-50.705555555555556,,,,1760267911.6571023,0
1.0,-32.10625,0.195973,34.47,,1760267911.784375,0
1.0,32.87625,,,,1760267911.9116478,0
1.0,31.5625,0.195973,34.47,,1760267912.0389204,0
1.0,25.7325,,,,1760267912.1661932,0
1.0,7.42625,0.197254,34.45,,1760267912.2934659,0
1.0,-14.0325,,,,1760267912.4207387,0
1.0,-35.27777777777778,0.194692,34.45,,1760267912.5480113,0
1.0,-50.638749999999995,,,,1760267912.6752841,0
1.0,21.712500000000002,0.193411,34.45,,1760267912.8025568,0
1.0,30.403750000000002,,,,1760267912.9298296,0
1.0,24.9175,0.193411,34.45,,1760267913.0571022,0
1.0,14.12875,,,,1760267913.184375,0
1.0,-10.63375,0.195973,34.47,,1760267913.3116477,0
1.0,-34.91111111111111,,,,1760267913.4389205,0
1.0,-65.0625,0.195973,34.47,,1760267913.566193,0
1.0,-13.879999999999999,,,,1760267913.693466,0
1.0,39.32625,0.197254,34.47,,1760267913.8207386,0
1.0,37.235,,,,1760267913.9480114,0
1.0,33.06875,0.197254,34.47,,1760267914.075284,0
1.0,9.87375,,,,1760267914.2025568,0
1.0,-14.891111111111112,0.194692,34.49,,1760267914.3298295,0
1.0,-41.03125,,,,1760267914.4571023,0
1.0,-70.03125,0.194692,34.49,,1760267914.584375,0
1.0,8.0575,,,,1760267914.7116477,0
1.0,42.06125,0.194692,34.49,,1760267914.8389204,0
1.0,35.86125,,,,1760267914.9661932,0
1.0,28.16625,0.197254,34.49,,1760267915.0934658,0
1.0,-3.25,,,,1760267915.2207386,0
1.0,-32.794999999999995,0.198535,34.47,,1760267915.3480113,0
1.0,-63.1375,,,,1760267915.475284,0
1.0,7.580000000000002,0.195973,34.47,,1760267915.6025567,0
1.0,39.916250000000005,,,,1760267915.7298295,0
1.0,28.043750000000003,0.197254,34.47,,1760267915.8571022,0
1.0,21.14625,,,,1760267915.984375,0
1.0,-13.478888888888891,0.197254,34.47,,1760267916.1116478,0
1.0,-45.801249999999996,,,,1760267916.2389205,0
1.0,-24.44375,0.194692,34.45,,1760267916.3661933,0
1.0,42.28375,,,,1760267916.493466,0
1.0,27.03125,0.195973,34.45,,1760267916.6207387,0
1.0,22.60375,,,,1760267916.7480114,0
1.0,-9.433333333333334,0.198535,34.45,,1760267916.8752842,0
1.0,-46.457499999999996,0.198535,34.45,,1760267917.0025568,0
1.0,-59.9525,,,,1760267917.1298296,0
1.0,35.0025,0.195973,34.47,,1760267917.2571023,0
1.0,47.045,,,,1760267917.384375,0
1.0,36.79125,0.194692,34.47,,1760267917.5116477,0
1.0,18.05875,,,,1760267917.6389205,0
1.0,-20.51888888888889,0.194692,34.47,,1760267917.7661932,0
1.0,-56.417500000000004,,,,1760267917.893466,0
1.0,-34.49625,0.194692,34.47,,1760267918.0207386,0
1.0,45.753750000000004,,,,1760267918.1480114,0
1.0,41.69,0.197254,34.45,,1760267918.275284,0
1.0,32.6525,,,,1760267918.402557,0
1.0,8.55375,0.197254,34.45,,1760267918.5298295,0
1.0,-21.835555555555555,,,,1760267918.6571023,0
1.0,-53.05875,0.198535,34.45,,1760267918.784375,0
1.0,-24.5225,,,,1760267918.9116478,0
1.0,40.73,0.195973,34.45,,1760267919.0389204,0
1.0,30.628749999999997,,,,1760267919.1661932,0
1.0,26.637500000000003,0.194692,34.47,,1760267919.2934659,0
1.0,0.18374999999999986,,,,1760267919.4207387,0
1.0,-28.281111111111112,0.194692,34.47,,1760267919.5480113,0
1.0,-57.87125,,,,1760267919.6752841,0
1.0,-3.974999999999998,0.197254,34.47,,1760267919.8025568,0
1.0,42.44375,,,,1760267919.9298296,0
1.0,34.7675,0.198535,34.47,,1760267920.0571022,0
1.0,28.458750000000002,,,,1760267920.184375,0
1.0,4.969999999999999,0.195973,34.47,,1760267920.3116477,0
1.0,-19.450000000000003,,,,1760267920.4389205,0
1.0,-45.147499999999994,0.197254,34.47,,1760267920.566193,0
1.0,-69.14750000000001,,,,1760267920.693466,0
1.0,18.275,0.197254,34.47,,1760267920.8207386,0
1.0,41.305,,,,1760267920.9480114,0
1.0,33.12125,0.194692,34.47,,1760267921.075284,0
1.0,23.02625,,,,1760267921.2025568,0
1.0,-5.760000000000001,0.194692,34.43,,1760267921.3298295,0
1.0,-32.23125,,,,1760267921.4571023,0
1.0,-58.85125,0.195973,34.43,,1760267921.584375,0
1.0,9.18625,,,,1760267921.7116477,0
1.0,34.307500000000005,0.198535,34.43,,1760267921.8389204,0
1.0,27.872500000000002,,,,1760267921.9661932,0
1.0,21.9325,0.198535,34.43,,1760267922.0934658,0
1.0,-8.577777777777778,,,,1760267922.2207386,0
1.0,-35.81375,0.195973,34.45,,1760267922.3480113,0
1.0,-63.71375,,,,1760267922.475284,0
1.0,-17.073749999999997,0.194692,34.45,,1760267922.6025567,0
1.0,40.2175,,,,1760267922.7298295,0
1.0,35.650000000000006,0.195973,34.45,,1760267922.8571022,0
1.0,30.015,,,,1760267922.984375,0
1.0,1.3022222222222217,0.194692,34.45,,1760267923.1116478,0
1.0,-27.697499999999998,,,,1760267923.2389205,0
1.0,-54.275,0.198535,34.45,,1760267923.3661933,0
1.0,-58.777499999999996,,,,1760267923.493466,0
1.0,35.70625,0.198535,34.45,,1760267923.6207387,0
1.0,49.2975,,,,1760267923.7480114,0
1.0,45.467777777777776,0.197254,34.45,,1760267923.8752842,0
1.0,25.395,0.194692,34.45,,1760267924.0025568,0
1.0,-2.23375,,,,1760267924.1298296,0
1.0,-27.985,0.194692,34.47,,1760267924.2571023,0
1.0,-58.25,,,,1760267924.384375,0
1.0,-54.25125,0.194692,34.47,,1760267924.5116477,0
1.0,39.77875,,,,1760267924.6389205,0
1.0,45.354444444444454,0.198535,34.47,,1760267924.7661932,0
1.0,40.6475,,,,1760267924.893466,0
1.0,18.603749999999998,0.198535,34.47,,1760267925.0207386,0
1.0,-6.923749999999999,,,,1760267925.1480114,0
1.0,-30.32875,0.198535,34.47,,1760267925.275284,0
1.0,-60.34625,,,,1760267925.402557,0
1.0,-11.9275,0.198535,34.47,,1760267925.5298295,0
1.0,40.43444444444444,,,,1760267925.6571023,0
1.0,31.78875,0.194692,34.47,,1760267925.784375,0
1.0,26.11,,,,1760267925.9116478,0
1.0,-0.12749999999999995,0.194692,34.47,,1760267926.0389204,0
1.0,-23.346249999999998,,,,1760267926.1661932,0
1.0,-47.6475,0.194692,34.47,,1760267926.2934659,0
1.0,-23.35125,,,,1760267926.4207387,0
1.0,40.65,0.197254,34.47,,1760267926.5480113,0
1.0,29.833750000000002,,,,1760267926.6752841,0
1.0,26.520000000000003,0.198535,34.47,,1760267926.8025568,0
1.0,3.5374999999999996,,,,1760267926.9298296,0
1.0,-20.20375,0.197254,34.47,,1760267927.0571022,0
1.0,-45.25875,,,,1760267927.184375,0
1.0,-70.34625,0.197254,34.45,,1760267927.3116477,0
1.0,16.686666666666667,,,,1760267927.4389205,0
1.0,43.79375,0.194692,34.45,,1760267927.566193,0
1.0,41.61625,,,,1760267927.693466,0
1.0,28.07,0.194692,34.45,,1760267927.8207386,0
1.0,4.6850000000000005,,,,1760267927.9480114,0
1.0,-15.19,0.197254,34.45,,1760267928.075284,0
1.0,-36.1475,,,,1760267928.2025568,0
1.0,-65.90333333333335,0.198535,34.47,,1760267928.3298295,0
1.0,-5.321249999999999,,,,1760267928.4571023,0
1.0,45.37875,0.198535,34.47,,1760267928.584375,0
1.0,37.04875,,,,1760267928.7116477,0
1.0,31.415,0.197254,34.47,,1760267928.8389204,0
1.0,8.5975,,,,1760267928.9661932,0
1.0,-12.32375,0.195973,34.47,,1760267929.0934658,0
1.0,-35.01222222222222,,,,1760267929.2207386,0
1.0,-62.616249999999994,0.197254,34.45,,1760267929.3480113,0
1.0,-8.48375,,,,1760267929.475284,0
1.0,40.519999999999996,0.194692,34.45,,1760267929.6025567,0
1.0,30.27375,,,,1760267929.7298295,0
1.0,30.933749999999996,0.197254,34.45,,1760267929.8571022,0
1.0,7.773750000000001,,,,1760267929.984375,0
1.0,-18.936666666666667,0.198535,34.45,,1760267930.1116478,0
1.0,-43.61875,,,,1760267930.2389205,0
1.0,-64.49125,0.197254,34.43,,1760267930.3661933,0
1.0,27.3775,,,,1760267930.493466,0
1.0,40.82625,0.197254,34.43,,1760267930.6207387,0
1.0,33.707499999999996,,,,1760267930.7480114,0
1.0,26.10777777777778,0.195973,34.43,,1760267930.8752842,0
1.0,0.25875000000000004,0.213905,34.43,,1760267931.0025568,0
1.0,-22.3425,,,,1760267931.1298296,0
1.0,-48.8925,0.195973,34.47,,1760267931.2571023,0
1.0,-75.22125,,,,1760267931.384375,0
1.0,18.80125,0.198535,34.47,,1760267931.5116477,0
1.0,46.254999999999995,,,,1760267931.6389205,0
1.0,39.28666666666666,0.199815,34.47,,1760267931.7661932,0
1.0,31.79875,,,,1760267931.893466,0
1.0,6.0725,0.198535,34.47,,1760267932.0207386,0
1.0,-17.7225,,,,1760267932.1480114,0
1.0,-41.82875,0.197254,34.47,,1760267932.275284,0
1.0,-71.58125,,,,1760267932.402557,0
1.0,13.33625,0.197254,34.47,,1760267932.5298295,0
1.0,40.11,,,,1760267932.6571023,0
1.0,33.925,0.197254,34.47,,1760267932.784375,0
1.0,28.71,,,,1760267932.9116478,0
1.0,0.6524999999999999,0.198535,34.47,,1760267933.0389204,0
1.0,-24.125,,,,1760267933.1661932,0
1.0,-49.36,0.197254,34.47,,1760267933.2934659,0
1.0,-37.0325,,,,1760267933.4207387,0
1.0,41.97888888888888,0.199815,34.47,,1760267933.5480113,0
1.0,26.75,,,,1760267933.6752841,0
1.0,29.317500000000003,0.198535,34.47,,1760267933.8025568,0
1.0,5.1499999999999995,,,,1760267933.9298296,0
1.0,-25.548750000000002,0.197254,34.47,,1760267934.0571022,0
1.0,-52.86375,,,,1760267934.184375,0
1.0,-40.855000000000004,0.195973,34.45,,1760267934.3116477,0
1.0,45.906666666666666,,,,1760267934.4389205,0
1.0,38.348749999999995,0.195973,34.45,,1760267934.566193,0
1.0,36.77875,,,,1760267934.693466,0
1.0,14.705,0.199815,34.45,,1760267934.8207386,0
1.0,-12.11625,,,,1760267934.9480114,0
1.0,-36.365,0.199815,34.45,,1760267935.075284,0
1.0,-69.7125,,,,1760267935.2025568,0
1.0,-15.215555555555552,0.198535,34.47,,1760267935.3298295,0
1.0,51.292500000000004,,,,1760267935.4571023,0
1.0,45.19625,0.198535,34.47,,1760267935.584375,0
1.0,38.9525,,,,1760267935.7116477,0
1.0,17.02375,0.197254,34.47,,1760267935.8389204,0
1.0,-8.4125,,,,1760267935.9661932,0
1.0,-29.76125,0.198535,34.47,,1760267936.0934658,0
1.0,-60.99000000000001,,,,1760267936.2207386,0
1.0,-34.37125,0.198535,34.47,,1760267936.3480113,0
1.0,44.1625,,,,1760267936.475284,0
1.0,37.9675,0.199815,34.47,,1760267936.6025567,0
1.0,34.79,,,,1760267936.7298295,0
1.0,18.075,0.198535,34.47,,1760267936.8571022,0
1.0,-7.0225,,,,1760267936.984375,0
1.0,-27.426666666666666,0.199815,34.47,,1760267937.1116478,0
1.0,-54.90625000000001,,,,1760267937.2389205,0
1.0,-10.9925,0.197254,34.45,,1760267937.3661933,0
1.0,38.895,,,,1760267937.493466,0
1.0,26.73875,0.197254,34.45,,1760267937.6207387,0
1.0,27.416249999999998,,,,1760267937.7480114,0
1.0,4.463333333333335,0.195973,34.45,,1760267937.8752842,0
1.0,-19.10625,0.198535,34.45,,1760267938.0025568,0
1.0,-39.504999999999995,,,,1760267938.1298296,0
1.0,-63.986250000000005,0.199815,34.45,,1760267938.2571023,0
1.0,17.243750000000002,,,,1760267938.384375,0
1.0,38.86125,0.199815,34.45,,1760267938.5116477,0
1.0,30.85875,,,,1760267938.6389205,0
1.0,26.147777777777776,0.198535,34.45,,1760267938.7661932,0
1.0,2.5912499999999996,,,,1760267938.893466,0
1.0,-16.62875,0.197254,34.45,,1760267939.0207386,0
1.0,-37.17375,,,,1760267939.1480114,0
1.0,-65.7525,0.197254,34.47,,1760267939.275284,0
1.0,-31.113750000000003,,,,1760267939.402557,0
1.0,42.30625,0.195973,34.47,,1760267939.5298295,0
1.0,37.02111111111111,,,,1760267939.6571023,0
1.0,36.3175,0.198535,34.47,,1760267939.784375,0
1.0,16.9225,,,,1760267939.9116478,0
1.0,-6.2925,0.201096,34.47,,1760267940.0389204,0
1.0,-26.771250000000002,,,,1760267940.1661932,0
1.0,-54.618750000000006,0.199815,34.45,,1760267940.2934659,0
1.0,-64.415,,,,1760267940.4207387,0
1.0,37.20222222222222,0.198535,34.45,,1760267940.5480113,0
1.0,39.415000000000006,,,,1760267940.6752841,0
1.0,38.651250000000005,0.197254,34.45,,1760267940.8025568,0
1.0,25.83625,,,,1760267940.9298296,0
1.0,-0.18625000000000025,0.195973,34.45,,1760267941.0571022,0
1.0,-20.19125,,,,1760267941.184375,0
1.0,-45.23875,0.199815,34.45,,1760267941.3116477,0
1.0,-63.155555555555566,,,,1760267941.4389205,0
