ID,empatica_bvp,empatica_eda,empatica_temp,samsung_bvp,time,CL
0.0,7.32,0.522594,34.93,2192602.0,1767084367.776875,1
0.0,36.255,0.521313,34.93,2191510.0,1767084368.021875,1
0.0,49.403333,0.521313,34.93,2192670.0,1767084368.266875,1
0.0,-84.565,0.522594,34.93,2185914.0,1767084368.511875,1
0.0,203.59,0.521313,34.93,2182633.0,1767084369.001875,1
0.0,-83.906667,0.518752,34.95,2161118.0,1767084369.281875,1
0.0,1.44,0.522594,34.95,2156133.0,1767084369.526875,1
0.0,22.335,0.525156,34.95,2137444.0,1767084369.771875,1
0.0,-26.133333,0.523875,34.95,2124277.0,1767084370.016875,1
0.0,41.44,0.523875,34.91,2129296.0,1767084370.261875,1
0.0,-3.575,0.526437,34.91,2128318.0,1767084370.506875,1
0.0,-0.34,0.528999,34.91,2125332.0,1767084370.751875,1
0.0,-46.826667,0.530279,34.91,2128904.0,1767084371.031875,1
0.0,-9.465,0.523875,34.91,2121804.0,1767084371.276875,1
0.0,-7.79,0.525156,34.91,2118429.0,1767084371.521875,1
0.0,26.756667,0.527718,34.91,2117392.0,1767084371.766875,1
0.0,-8.19,0.523875,34.91,2112116.0,1767084372.011875,1
0.0,-43.253333,0.525156,34.93,2085269.0,1767084372.781875,1
0.0,12.025,0.523875,34.93,2067853.0,1767084373.026875,1
0.0,5.7,0.521313,34.93,2048402.0,1767084373.271875,1
0.0,12.986667,0.521313,34.93,2056722.0,1767084373.516875,1
0.0,-9.265,0.522594,34.93,2044186.0,1767084374.006875,1
0.0,49.456667,0.518752,34.95,2047149.0,1767084374.251875,1
0.0,0.643333,0.517471,34.95,2051579.0,1767084374.531875,1
0.0,-47.29,0.521313,34.95,2041690.0,1767084374.776875,1
0.0,20.145,0.521313,34.95,2044594.0,1767084375.021875,1
0.0,0.57,0.521313,34.97,2053464.0,1767084375.266875,1
0.0,-29.435,0.514909,34.97,2051614.0,1767084375.511875,1
0.0,-21.525,0.522594,34.97,2051201.0,1767084375.756875,1
0.0,76.79,0.521313,34.97,2060183.0,1767084376.001875,1
0.0,46.656667,0.520033,34.95,2067569.0,1767084376.281875,1
0.0,-70.55,0.521313,34.95,2068115.0,1767084376.771875,1
0.0,-23.936667,0.523875,34.95,2065300.0,1767084377.016875,1
0.0,-19.115,0.523875,34.93,2058765.0,1767084377.261875,1
0.0,30.145,0.520033,34.93,2077872.0,1767084377.506875,1
0.0,-2.746667,0.520033,34.93,2087333.0,1767084377.751875,1
0.0,-39.716667,0.522594,34.93,2071958.0,1767084378.031875,1
0.0,36.615,0.520033,34.95,2069198.0,1767084378.276875,1
0.0,34.69,0.518752,34.95,2069454.0,1767084378.521875,1
0.0,38.066667,0.521313,34.95,2069569.0,1767084378.766875,1
0.0,-156.64,0.521313,34.95,2081510.0,1767084379.256875,1
0.0,-92.236667,0.517471,34.95,2081453.0,1767084379.501875,1
0.0,0.633333,0.517471,34.95,2084439.0,1767084379.781875,1
0.0,-6.475,0.517471,34.95,2083182.0,1767084380.026875,1
0.0,-12.88,0.518752,34.99,2089039.0,1767084380.271875,1
0.0,40.81,0.51619,34.99,2081796.0,1767084380.516875,1
0.0,1.06,0.518752,34.99,2056187.0,1767084380.761875,1
0.0,40.47,0.518752,34.97,2066417.0,1767084381.251875,1
0.0,32.22,0.514909,34.97,2071928.0,1767084381.531875,1
0.0,10.17,0.513628,34.97,2075390.0,1767084381.776875,1
0.0,-7.3,0.517471,34.97,2081737.0,1767084382.021875,1
0.0,-43.023333,0.51619,34.97,2079389.0,1767084382.266875,1
0.0,3.205,0.514909,34.97,2082907.0,1767084382.511875,1
0.0,26.56,0.511066,34.97,2084411.0,1767084382.756875,1
0.0,-32.436667,0.508505,34.97,2082476.0,1767084383.001875,1
0.0,20.233333,0.511066,34.97,2086165.0,1767084383.281875,1
0.0,18.415,0.509786,34.97,2066193.0,1767084383.526875,1
0.0,-9.835,0.505943,34.99,2082477.0,1767084384.261875,1
0.0,-68.095,0.508505,34.99,2079577.0,1767084384.506875,1
0.0,28.836667,0.505943,34.99,2082810.0,1767084384.751875,1
0.0,-18.023333,0.504662,34.99,2086790.0,1767084385.031875,1
0.0,-80.92,0.504662,34.99,2083339.0,1767084385.276875,1
0.0,32.27,0.505943,34.99,2078835.0,1767084385.766875,1
0.0,-27.175,0.50082,34.99,2059648.0,1767084386.011875,1
0.0,35.725,0.504662,34.99,2066334.0,1767084386.256875,1
0.0,31.836667,0.504662,34.99,2068913.0,1767084386.501875,1
0.0,-17.55,0.503381,34.99,2067519.0,1767084386.781875,1
0.0,30.045,0.498258,34.99,2069334.0,1767084387.026875,1
0.0,-64.223333,0.5021,34.99,2062985.0,1767084387.516875,1
0.0,19.83,0.50082,34.99,2066032.0,1767084387.761875,1
0.0,-3.145,0.498258,34.99,2062733.0,1767084388.006875,1
0.0,-7.456667,0.50082,34.99,2047622.0,1767084388.251875,1
0.0,21.1,0.5021,34.99,2052757.0,1767084388.531875,1
0.0,-17.57,0.50082,34.99,2058021.0,1767084388.776875,1
0.0,76.545,0.496977,34.99,2073533.0,1767084389.021875,1
0.0,-59.205,0.494415,34.97,2085485.0,1767084389.511875,1
0.0,6.77,0.496977,34.97,2087953.0,1767084389.756875,1
0.0,-20.686667,0.496977,34.97,2084545.0,1767084390.001875,1
0.0,-49.873333,0.493134,34.99,2078778.0,1767084390.281875,1
0.0,22.82,0.493134,34.99,2081826.0,1767084390.526875,1
0.0,7.143333,0.488011,34.99,2058906.0,1767084391.016875,1
0.0,27.14,0.489292,34.95,2068883.0,1767084391.261875,1
0.0,48.79,0.489292,34.95,2068773.0,1767084391.506875,1
0.0,101.2,0.491853,34.95,2072455.0,1767084391.751875,1
0.0,-157.983333,0.489292,34.95,2077983.0,1767084392.031875,1
0.0,-78.01,0.490573,34.99,2081652.0,1767084392.276875,1
0.0,2.8,0.488011,34.99,2087740.0,1767084392.521875,1
0.0,-5.75,0.489292,34.99,2088758.0,1767084392.766875,1
0.0,-28.575,0.485449,34.99,2090689.0,1767084393.011875,1
0.0,32.725,0.482887,34.97,2092180.0,1767084393.256875,1
0.0,-5.323333,0.48673,34.97,2089505.0,1767084393.501875,1
0.0,15.466667,0.489292,34.97,2094810.0,1767084393.781875,1
0.0,53.44,0.485449,34.97,2093802.0,1767084394.026875,1
0.0,-23.455,0.485449,34.99,2086209.0,1767084394.271875,1
0.0,28.69,0.488011,34.99,2093542.0,1767084394.761875,1
0.0,-9.21,0.484168,34.99,2091693.0,1767084395.006875,1
0.0,12.46,0.48673,34.99,2102571.0,1767084395.251875,1
0.0,41.833333,0.484168,34.99,2092072.0,1767084395.531875,1
0.0,-22.82,0.482887,34.99,2069775.0,1767084396.021875,1
0.0,27.726667,0.484168,34.99,2078739.0,1767084396.266875,1
0.0,3.93,0.482887,34.99,2078836.0,1767084396.511875,1
0.0,37.89,0.484168,34.99,2082023.0,1767084396.756875,1
0.0,15.48,0.481606,34.99,2083411.0,1767084397.001875,1
0.0,-45.743333,0.479045,34.99,2079251.0,1767084397.281875,1
0.0,-11.555,0.480326,34.99,2080786.0,1767084397.526875,1
0.0,-18.9,0.481606,34.99,2073730.0,1767084397.771875,1
0.0,-38.45,0.481606,34.99,2052288.0,1767084398.016875,1
0.0,31.03,0.477764,34.99,2046556.0,1767084398.261875,1
0.0,14.965,0.476483,34.99,2046265.0,1767084398.506875,1
0.0,-19.64,0.479045,34.99,2042595.0,1767084398.751875,1
0.0,42.74,0.476483,34.99,2044374.0,1767084399.031875,1
0.0,0.6,0.473921,34.99,2045016.0,1767084399.276875,1
0.0,-54.785,0.473921,34.99,2050731.0,1767084399.521875,1
0.0,-6.44,0.475202,34.99,2059484.0,1767084399.766875,1
0.0,1.78,0.47136,34.99,2054020.0,1767084400.011875,1
0.0,26.525,0.470079,34.99,2058622.0,1767084400.256875,1
0.0,36.753333,0.47136,34.99,2074306.0,1767084400.501875,1
0.0,-49.46,0.47264,34.99,2075592.0,1767084400.781875,1
0.0,10.025,0.470079,35.0,2076546.0,1767084401.271875,1
0.0,12.893333,0.47264,35.0,2077042.0,1767084401.516875,1
0.0,37.52,0.473921,35.0,2084475.0,1767084401.761875,1
0.0,72.985,0.476483,35.0,2090595.0,1767084402.006875,1
0.0,-124.386667,0.477764,34.99,2091937.0,1767084402.251875,1
0.0,14.943333,0.476483,34.99,2099544.0,1767084402.531875,1
0.0,-27.233333,0.477764,34.97,2114913.0,1767084403.266875,1
0.0,-7.47,0.479045,34.97,2119290.0,1767084403.511875,1
0.0,42.495,0.477764,34.97,2124036.0,1767084403.756875,1
0.0,19.703333,0.479045,34.97,2112763.0,1767084404.001875,1
0.0,34.77,0.481606,34.99,2103552.0,1767084404.281875,1
0.0,55.535,0.482887,34.99,2101912.0,1767084404.526875,1
0.0,75.93,0.481606,34.99,2097552.0,1767084404.771875,1
0.0,-107.526667,0.481606,34.99,2099638.0,1767084405.016875,1
0.0,-38.96,0.480326,34.99,2103695.0,1767084405.261875,1
0.0,-48.765,0.484168,34.99,2096841.0,1767084405.506875,1
0.0,62.903333,0.485449,34.99,2095205.0,1767084405.751875,1
0.0,12.403333,0.481606,34.99,2097791.0,1767084406.031875,1
0.0,-62.44,0.481606,34.99,2065702.0,1767084406.276875,1
0.0,6.21,0.484168,34.99,2064322.0,1767084406.521875,1
0.0,17.006667,0.484168,34.99,2077601.0,1767084406.766875,1
0.0,-3.425,0.480326,34.99,2083320.0,1767084407.011875,1
0.0,69.41,0.484168,34.99,2086740.0,1767084407.256875,1
0.0,-15.995,0.481606,34.99,2100988.0,1767084408.026875,1
0.0,-33.94,0.482887,35.0,2095941.0,1767084408.271875,1
0.0,-6.22,0.482887,35.0,2092310.0,1767084408.516875,1
0.0,20.44,0.482887,35.0,2064576.0,1767084408.761875,1
0.0,-36.155,0.479045,35.0,2057120.0,1767084409.006875,1
0.0,36.423333,0.479045,34.99,2074706.0,1767084409.251875,1
0.0,20.75,0.481606,34.99,2077032.0,1767084409.531875,1
0.0,9.64,0.479045,34.99,2083791.0,1767084410.021875,1
0.0,-51.526667,0.484168,34.99,2087723.0,1767084410.266875,1
0.0,8.255,0.482887,34.99,2089825.0,1767084410.511875,1
0.0,1.675,0.484168,34.99,2080418.0,1767084410.756875,1
0.0,0.733333,0.480326,34.99,2063689.0,1767084411.001875,1
0.0,8.1,0.481606,35.0,2041375.0,1767084411.281875,1
0.0,23.005,0.484168,35.0,2049641.0,1767084411.771875,1
0.0,-29.336667,0.480326,35.0,2050621.0,1767084412.016875,1
0.0,32.515,0.480326,34.97,2056473.0,1767084412.261875,1
0.0,-4.015,0.480326,34.97,2048658.0,1767084412.506875,1
0.0,-10.53,0.481606,34.97,2049948.0,1767084412.751875,1
0.0,-47.735,0.476483,34.99,2039256.0,1767084413.276875,1
0.0,55.13,0.480326,34.99,2037612.0,1767084413.521875,1
0.0,67.153333,0.480326,34.99,2048171.0,1767084413.766875,1
0.0,27.985,0.476483,34.99,2041200.0,1767084414.011875,1
0.0,66.045,0.479045,35.0,2043439.0,1767084414.256875,1
0.0,-130.496667,0.480326,35.0,2052621.0,1767084414.501875,1
0.0,-77.36,0.482887,35.0,2047979.0,1767084414.781875,1
0.0,85.08,0.480326,35.0,2049208.0,1767084415.026875,1
0.0,36.235,0.481606,34.97,2043391.0,1767084415.271875,1
0.0,-49.44,0.481606,34.97,2042578.0,1767084415.516875,1
0.0,81.65,0.481606,34.97,2029180.0,1767084416.006875,1
0.0,106.966667,0.484168,34.99,2042335.0,1767084416.251875,1
0.0,3.333333,0.48673,34.99,2038581.0,1767084416.531875,1
0.0,-99.96,0.48673,34.99,2043211.0,1767084416.776875,1
0.0,-20.86,0.484168,34.99,2054130.0,1767084417.021875,1
0.0,-70.03,0.481606,34.97,2052699.0,1767084417.266875,1
0.0,16.395,0.488011,34.97,2024013.0,1767084417.756875,1
0.0,-33.15,0.485449,34.97,2012150.0,1767084418.001875,1
0.0,40.9,0.482887,34.99,2035520.0,1767084418.281875,1
0.0,42.87,0.48673,34.99,2048593.0,1767084418.526875,1
0.0,-19.755,0.485449,34.99,2048187.0,1767084418.771875,1
0.0,36.333333,0.48673,34.99,2051625.0,1767084419.016875,1
0.0,-17.935,0.485449,34.99,2058347.0,1767084419.261875,1
0.0,21.036667,0.484168,34.99,2060444.0,1767084419.751875,1
0.0,29.89,0.482887,34.99,2042908.0,1767084420.031875,1
0.0,-43.785,0.481606,34.97,2015448.0,1767084420.276875,1
0.0,31.55,0.479045,34.97,2019527.0,1767084420.521875,1
0.0,16.883333,0.480326,34.97,2020574.0,1767084420.766875,1
0.0,3.905,0.477764,34.97,2023125.0,1767084421.011875,1
0.0,25.38,0.479045,34.97,2019778.0,1767084421.256875,1
0.0,-51.276667,0.476483,34.97,2020906.0,1767084421.501875,1
0.0,0.13,0.479045,34.97,2022922.0,1767084421.781875,1
0.0,-22.145,0.477764,34.97,2015265.0,1767084422.026875,1
0.0,30.27,0.475202,34.97,2019056.0,1767084422.271875,1
0.0,12.5,0.473921,34.97,2007775.0,1767084422.516875,1
0.0,-69.265,0.475202,34.97,1998056.0,1767084422.761875,1
0.0,34.055,0.475202,34.97,2003288.0,1767084423.006875,1
0.0,-1.366667,0.47264,34.97,2005891.0,1767084423.251875,1
0.0,19.526667,0.47136,34.97,2000767.0,1767084423.531875,1
0.0,44.51,0.473921,34.97,2003232.0,1767084423.776875,1
0.0,-16.885,0.473921,34.97,2005694.0,1767084424.021875,1
0.0,-23.606667,0.470079,34.99,1997984.0,1767084424.266875,1
0.0,13.745,0.470079,34.99,1987985.0,1767084424.756875,1
0.0,-63.573333,0.464955,34.99,1977918.0,1767084425.001875,1
0.0,49.106667,0.464955,34.97,1975925.0,1767084425.281875,1
0.0,58.18,0.462393,34.97,1995527.0,1767084425.526875,1
0.0,-30.8,0.470079,34.97,2003637.0,1767084425.771875,1
0.0,-37.113333,0.47136,34.97,2014939.0,1767084426.016875,1
0.0,4.68,0.468798,34.97,2025691.0,1767084426.261875,1
0.0,-16.3,0.467517,34.97,2031919.0,1767084426.506875,1
0.0,-70.22,0.47136,34.97,2031396.0,1767084426.751875,1
0.0,47.743333,0.468798,34.97,2037954.0,1767084427.031875,1
0.0,20.69,0.468798,34.97,2033385.0,1767084427.276875,1
0.0,-57.12,0.466236,34.97,2032375.0,1767084427.521875,1
0.0,26.816667,0.470079,34.97,2036018.0,1767084427.766875,1
0.0,17.82,0.468798,34.97,2038219.0,1767084428.011875,1
0.0,-46.57,0.468798,34.95,2041596.0,1767084428.256875,1
0.0,-15.915,0.464955,34.95,2050010.0,1767084429.026875,1
0.0,27.925,0.464955,34.95,2049311.0,1767084429.271875,1
0.0,-13.356667,0.461113,34.95,2022882.0,1767084429.516875,1
0.0,1.43,0.459832,34.95,2031392.0,1767084429.761875,1
0.0,20.51,0.461113,34.95,2047676.0,1767084430.006875,1
0.0,-2.19,0.466236,34.97,2049395.0,1767084430.251875,1
0.0,41.6,0.461113,34.97,2058846.0,1767084430.531875,1
0.0,22.055,0.459832,34.97,2069587.0,1767084430.776875,1
0.0,1.573333,0.462393,34.95,2076975.0,1767084431.266875,1
0.0,16.5,0.459832,34.95,2086251.0,1767084431.511875,1
0.0,-24.685,0.458551,34.95,2085984.0,1767084431.756875,1
0.0,7.04,0.450866,34.95,2071787.0,1767084432.001875,1
0.0,23.716667,0.455989,34.97,2060746.0,1767084432.281875,1
0.0,-1.855,0.454708,34.97,2067464.0,1767084432.526875,1
0.0,31.275,0.454708,34.97,2073230.0,1767084432.771875,1
0.0,0.796667,0.454708,34.97,2083801.0,1767084433.016875,1
0.0,-4.81,0.458551,34.97,2094943.0,1767084433.506875,1
0.0,3.093333,0.455989,34.97,2098650.0,1767084433.751875,1
0.0,-25.37,0.455989,34.97,2100915.0,1767084434.031875,1
0.0,22.86,0.45727,34.95,2107742.0,1767084434.276875,1
0.0,0.15,0.450866,34.95,2104498.0,1767084434.521875,1
0.0,-26.43,0.452147,34.95,2109835.0,1767084434.766875,1
0.0,57.15,0.452147,34.93,2118631.0,1767084435.256875,1
0.0,37.33,0.454708,34.93,2123760.0,1767084435.501875,1
0.0,-96.53,0.458551,34.93,2128252.0,1767084435.781875,1
0.0,-38.365,0.454708,34.93,2126500.0,1767084436.026875,1
0.0,56.28,0.453427,34.97,2129810.0,1767084436.271875,1
0.0,33.396667,0.453427,34.97,2135269.0,1767084436.516875,1
0.0,-51.5,0.449585,34.97,2134426.0,1767084436.761875,1
0.0,39.89,0.452147,34.97,2135815.0,1767084437.006875,1
0.0,72.29,0.453427,34.95,2143629.0,1767084437.251875,1
0.0,32.943333,0.455989,34.95,2145049.0,1767084437.531875,1
0.0,-147.305,0.459832,34.95,2145273.0,1767084437.776875,1
0.0,8.715,0.461113,34.95,2152795.0,1767084438.021875,1
0.0,-1.42,0.459832,34.93,2153587.0,1767084438.266875,1
0.0,-34.395,0.458551,34.93,2150342.0,1767084438.511875,1
0.0,31.055,0.459832,34.93,2140021.0,1767084438.756875,1
0.0,8.273333,0.461113,34.93,2141534.0,1767084439.001875,1
0.0,7.43,0.45727,34.93,2145343.0,1767084439.281875,1
0.0,51.17,0.455989,34.93,2145545.0,1767084439.526875,1
0.0,65.865,0.455989,34.93,2144223.0,1767084439.771875,1
0.0,-77.765,0.458551,34.95,2144931.0,1767084440.261875,1
0.0,-92.44,0.454708,34.95,2142949.0,1767084440.506875,1
0.0,20.04,0.453427,34.95,2145659.0,1767084440.751875,1
0.0,17.666667,0.458551,34.95,2141384.0,1767084441.031875,1
0.0,-9.545,0.455989,34.93,2137626.0,1767084441.276875,1
0.0,36.96,0.450866,34.93,2138443.0,1767084441.521875,1
0.0,9.96,0.450866,34.93,2114484.0,1767084441.766875,1
0.0,-28.395,0.454708,34.93,2090226.0,1767084442.011875,1
0.0,36.845,0.458551,34.95,2102799.0,1767084442.256875,1
0.0,0.07,0.454708,34.95,2106581.0,1767084442.501875,1
0.0,-29.276667,0.454708,34.95,2110528.0,1767084442.781875,1
0.0,52.465,0.454708,34.95,2120750.0,1767084443.026875,1
0.0,-9.525,0.45727,34.93,2122879.0,1767084443.271875,1
0.0,-79.306667,0.458551,34.93,2117255.0,1767084443.516875,1
0.0,-42.493333,0.455989,34.93,2077944.0,1767084444.251875,1
0.0,25.946667,0.455989,34.93,2075179.0,1767084444.531875,1
0.0,15.375,0.453427,34.93,2080252.0,1767084444.776875,1
0.0,31.12,0.454708,34.93,2083006.0,1767084445.021875,1
0.0,10.063333,0.452147,34.91,2084966.0,1767084445.266875,1
0.0,-61.51,0.453427,34.91,2087404.0,1767084445.511875,1
0.0,11.5,0.454708,34.91,2094724.0,1767084445.756875,1
0.0,5.963333,0.449585,34.91,2092811.0,1767084446.281875,1
0.0,38.755,0.450866,34.91,2077802.0,1767084446.526875,1
0.0,-20.51,0.455989,34.91,2076179.0,1767084446.771875,1
0.0,11.34,0.449585,34.91,2083868.0,1767084447.016875,1
0.0,53.37,0.450866,34.93,2085749.0,1767084447.261875,1
0.0,8.235,0.448304,34.93,2088496.0,1767084447.506875,1
0.0,61.643333,0.452147,34.93,2093940.0,1767084447.751875,1
0.0,-88.653333,0.452147,34.93,2091299.0,1767084448.031875,1
0.0,-31.88,0.448304,34.91,2092301.0,1767084448.276875,1
0.0,48.885,0.447023,34.91,2097562.0,1767084448.521875,1
0.0,-8.976667,0.447023,34.91,2064933.0,1767084448.766875,1
0.0,-23.305,0.448304,34.91,2063777.0,1767084449.011875,1
0.0,16.68,0.447023,34.93,2069066.0,1767084449.256875,1
0.0,-13.93,0.447023,34.93,2077398.0,1767084449.501875,1
0.0,43.84,0.449585,34.93,2081691.0,1767084449.781875,1
0.0,12.495,0.448304,34.93,2078267.0,1767084450.026875,1
0.0,-60.755,0.447023,34.91,2079627.0,1767084450.271875,1
0.0,25.906667,0.44318,34.91,2085850.0,1767084450.516875,1
0.0,-24.985,0.454708,34.91,2080994.0,1767084450.761875,1
0.0,-38.26,0.447023,34.91,2052101.0,1767084451.006875,1
0.0,30.443333,0.445742,34.89,2054512.0,1767084451.251875,1
0.0,-7.426667,0.44318,34.89,2051157.0,1767084451.531875,1
0.0,32.135,0.44318,34.89,2061253.0,1767084451.776875,1
0.0,96.123333,0.445742,34.89,2075766.0,1767084452.266875,1
0.0,-91.67,0.4419,34.89,2079295.0,1767084452.511875,1
0.0,-79.1,0.44318,34.89,2085770.0,1767084452.756875,1
0.0,-20.46,0.44318,34.89,2082774.0,1767084453.001875,1
0.0,22.153333,0.444461,34.89,2086644.0,1767084453.281875,1
0.0,57.885,0.440619,34.89,2088944.0,1767084453.526875,1
0.0,-22.955,0.436776,34.89,2090195.0,1767084453.771875,1
0.0,29.563333,0.438057,34.89,2097936.0,1767084454.016875,1
0.0,54.29,0.440619,34.91,2097803.0,1767084454.261875,1
0.0,-88.453333,0.436776,34.91,2105049.0,1767084454.751875,1
0.0,-28.416667,0.435495,34.91,2101423.0,1767084455.031875,1
0.0,28.955,0.440619,34.91,2104664.0,1767084455.276875,1
0.0,9.765,0.440619,34.91,2106315.0,1767084455.521875,1
0.0,-42.82,0.436776,34.91,2086080.0,1767084455.766875,1
0.0,27.18,0.435495,34.91,2073410.0,1767084456.011875,1
0.0,-17.345,0.436776,34.91,2089315.0,1767084456.256875,1
0.0,-57.48,0.438057,34.91,2090394.0,1767084456.501875,1
0.0,50.063333,0.438057,34.91,2094941.0,1767084456.781875,1
0.0,23.62,0.435495,34.91,2099193.0,1767084457.026875,1
0.0,-2.57,0.438057,34.89,2109044.0,1767084457.761875,1
0.0,-46.04,0.434214,34.89,2086702.0,1767084458.006875,1
0.0,33.326667,0.434214,34.89,2081750.0,1767084458.251875,1
0.0,5.113333,0.434214,34.89,2089280.0,1767084458.531875,1
0.0,-35.19,0.436776,34.89,2090048.0,1767084458.776875,1
0.0,32.695,0.434214,34.89,2095419.0,1767084459.021875,1
0.0,-0.02,0.432933,34.87,2101241.0,1767084459.266875,1
0.0,-58.01,0.434214,34.87,2101111.0,1767084459.511875,1
0.0,17.99,0.436776,34.87,2114527.0,1767084460.001875,1
0.0,-49.986667,0.434214,34.87,2114516.0,1767084460.281875,1
0.0,33.91,0.430372,34.87,2122117.0,1767084460.526875,1
0.0,28.035,0.436776,34.87,2129327.0,1767084460.771875,1
0.0,32.363333,0.435495,34.87,2129690.0,1767084461.016875,1
0.0,87.075,0.432933,34.87,2133659.0,1767084461.261875,1
0.0,-159.165,0.431653,34.87,2136527.0,1767084461.506875,1
0.0,-53.953333,0.434214,34.87,2136572.0,1767084461.751875,1
0.0,10.646667,0.432933,34.87,2141602.0,1767084462.031875,1
0.0,9.68,0.434214,34.87,2140358.0,1767084462.276875,1
0.0,18.833333,0.432933,34.87,2123350.0,1767084462.766875,1
0.0,-13.925,0.431653,34.87,2123944.0,1767084463.011875,1
0.0,19.33,0.432933,34.87,2128043.0,1767084463.256875,1
0.0,23.95,0.431653,34.87,2131746.0,1767084463.501875,1
0.0,-49.246667,0.432933,34.87,2127854.0,1767084463.781875,1
0.0,27.615,0.430372,34.87,2130015.0,1767084464.026875,1
0.0,18.425,0.431653,34.84,2134152.0,1767084464.271875,1
0.0,-51.98,0.431653,34.84,2129777.0,1767084464.516875,1
0.0,39.12,0.42781,34.84,2131689.0,1767084464.761875,1
0.0,28.755,0.426529,34.84,2136540.0,1767084465.006875,1
0.0,-13.61,0.432933,34.87,2138644.0,1767084465.776875,1
0.0,-133.38,0.429091,34.87,2135520.0,1767084466.021875,1
0.0,43.19,0.430372,34.84,2135641.0,1767084466.266875,1
0.0,85.31,0.434214,34.84,2139014.0,1767084466.511875,1
0.0,-8.51,0.42781,34.84,2121842.0,1767084466.756875,1
0.0,-37.453333,0.429091,34.84,2118915.0,1767084467.001875,1
0.0,7.94,0.426529,34.84,2125612.0,1767084467.281875,1
0.0,53.22,0.429091,34.84,2123886.0,1767084467.526875,1
0.0,75.935,0.42781,34.84,2124749.0,1767084467.771875,1
0.0,-141.73,0.422687,34.84,2120250.0,1767084468.261875,1
0.0,24.24,0.421406,34.84,2123221.0,1767084468.506875,1
0.0,-3.336667,0.423967,34.84,2115453.0,1767084468.751875,1
0.0,32.623333,0.421406,34.84,2113006.0,1767084469.031875,1
0.0,22.935,0.422687,34.83,2112723.0,1767084469.276875,1
0.0,-46.945,0.421406,34.83,2104820.0,1767084469.521875,1
0.0,80.703333,0.422687,34.83,2103318.0,1767084469.766875,1
0.0,35.68,0.421406,34.83,2105905.0,1767084470.011875,1
0.0,-190.6,0.420125,34.84,2097265.0,1767084470.256875,1
0.0,33.24,0.420125,34.84,2095455.0,1767084470.501875,1
0.0,5.86,0.425248,34.84,2098836.0,1767084470.781875,1
0.0,-73.135,0.425248,34.84,2095381.0,1767084471.026875,1
0.0,38.063333,0.420125,34.84,2073713.0,1767084471.516875,1
0.0,25.34,0.422687,34.84,2078860.0,1767084471.761875,1
0.0,37.795,0.422687,34.84,2077399.0,1767084472.006875,1
0.0,-5.513333,0.421406,34.84,2080044.0,1767084472.251875,1
0.0,-48.576667,0.418844,34.84,2073713.0,1767084472.531875,1
0.0,53.725,0.417563,34.84,2073494.0,1767084472.776875,1
0.0,11.03,0.422687,34.84,2077259.0,1767084473.021875,1
0.0,-77.42,0.422687,34.83,2072145.0,1767084473.266875,1
0.0,19.05,0.418844,34.83,2075810.0,1767084473.511875,1
0.0,-12.076667,0.417563,34.83,2074716.0,1767084474.001875,1
0.0,122.11,0.417563,34.81,2074907.0,1767084474.281875,1
0.0,13.25,0.417563,34.81,2079041.0,1767084474.526875,1
0.0,-234.195,0.415001,34.81,2073892.0,1767084474.771875,1
0.0,18.53,0.41372,34.81,2072907.0,1767084475.016875,1
0.0,32.035,0.416282,34.83,2076606.0,1767084475.261875,1
0.0,-16.095,0.417563,34.83,2072265.0,1767084475.506875,1
0.0,5.16,0.417563,34.83,2074644.0,1767084475.751875,1
0.0,25.25,0.41372,34.83,2076246.0,1767084476.031875,1
0.0,3.285,0.416282,34.83,2072083.0,1767084476.276875,1
0.0,57.495,0.417563,34.83,2073648.0,1767084476.521875,1
0.0,34.43,0.41244,34.81,2070491.0,1767084477.256875,1
0.0,-10.83,0.41372,34.81,2057180.0,1767084477.501875,1
0.0,-0.923333,0.416282,34.81,2040658.0,1767084477.781875,1
0.0,16.54,0.415001,34.81,2055591.0,1767084478.026875,1
0.0,-21.995,0.41372,34.83,2057872.0,1767084478.271875,1
0.0,28.813333,0.41372,34.83,2061178.0,1767084478.516875,1
0.0,38.015,0.415001,34.83,2071041.0,1767084478.761875,1
0.0,-26.21,0.41372,34.83,2070912.0,1767084479.006875,1
0.0,6.45,0.409878,34.83,2074559.0,1767084479.251875,1
0.0,25.416667,0.408597,34.83,2072388.0,1767084479.531875,1
0.0,-47.72,0.409878,34.83,2061114.0,1767084479.776875,1
0.0,31.41,0.41244,34.83,2068961.0,1767084480.021875,1
0.0,1.993333,0.408597,34.83,2069869.0,1767084480.266875,1
0.0,20.48,0.408597,34.83,2081316.0,1767084480.756875,1
0.0,-27.776667,0.408597,34.83,2078219.0,1767084481.001875,1
0.0,46.303333,0.409878,34.81,2081643.0,1767084481.281875,1
0.0,-0.205,0.406035,34.81,2086838.0,1767084481.526875,1
0.0,-70.505,0.406035,34.81,2071614.0,1767084481.771875,1
0.0,33.616667,0.407316,34.81,2066868.0,1767084482.016875,1
0.0,16.975,0.409878,34.81,2080016.0,1767084482.261875,1
0.0,-44.58,0.406035,34.81,2079993.0,1767084482.506875,1
0.0,40.273333,0.406035,34.81,2084626.0,1767084482.751875,1
0.0,-54.825,0.408597,34.81,2090526.0,1767084483.276875,1
0.0,24.99,0.404754,34.81,2096644.0,1767084483.521875,1
0.0,16.253333,0.406035,34.81,2082551.0,1767084483.766875,1
0.0,-46.925,0.408597,34.81,2075539.0,1767084484.011875,1
0.0,19.72,0.408597,34.81,2078838.0,1767084484.256875,1
0.0,14.613333,0.408597,34.81,2069902.0,1767084484.501875,1
0.0,4.86,0.403474,34.81,2074832.0,1767084484.781875,1
0.0,90.355,0.400912,34.81,2080392.0,1767084485.026875,1
0.0,25.06,0.406035,34.81,2086265.0,1767084485.271875,1
0.0,-90.15,0.404754,34.81,2097549.0,1767084485.516875,1
0.0,-34.39,0.402193,34.81,2111396.0,1767084485.761875,1
0.0,-52.84,0.400912,34.81,2118979.0,1767084486.006875,1
0.0,-55.19,0.403474,34.79,2125973.0,1767084486.776875,1
0.0,6.185,0.399631,34.79,2126861.0,1767084487.021875,1
0.0,5.343333,0.400912,34.79,2129248.0,1767084487.266875,1
0.0,-37.69,0.403474,34.79,2130902.0,1767084487.511875,1
0.0,41.35,0.400912,34.79,2133106.0,1767084487.756875,1
0.0,-4.183333,0.397069,34.79,2128635.0,1767084488.001875,1
0.0,14.116667,0.397069,34.77,2128851.0,1767084488.281875,1
0.0,20.025,0.39835,34.77,2128260.0,1767084488.526875,1
0.0,38.283333,0.399631,34.77,2130176.0,1767084489.016875,1
0.0,30.87,0.397069,34.77,2133335.0,1767084489.261875,1
0.0,-14.21,0.397069,34.77,2129664.0,1767084489.506875,1
0.0,121.88,0.397069,34.77,2130397.0,1767084489.751875,1
0.0,-43.576667,0.397069,34.77,2131458.0,1767084490.031875,1
0.0,-160.24,0.395788,34.79,2128433.0,1767084490.276875,1
0.0,26.635,0.394507,34.79,2129720.0,1767084490.521875,1
0.0,12.37,0.397069,34.79,2130328.0,1767084490.766875,1
0.0,83.405,0.395788,34.79,2129137.0,1767084491.256875,1
0.0,14.056667,0.391946,34.79,2125349.0,1767084491.501875,1
0.0,-35.833333,0.393227,34.79,2128386.0,1767084491.781875,1
0.0,103.965,0.393227,34.79,2130626.0,1767084492.026875,1
0.0,25.87,0.394507,34.77,2126381.0,1767084492.271875,1
0.0,-162.706667,0.391946,34.77,2127747.0,1767084492.516875,1
0.0,24.055,0.390665,34.77,2122770.0,1767084492.761875,1
0.0,-50.74,0.394507,34.77,2116152.0,1767084493.006875,1
0.0,-33.205,0.389384,34.77,2106355.0,1767084493.776875,1
0.0,80.12,0.389384,34.77,2107695.0,1767084494.021875,1
0.0,96.78,0.391946,34.77,2106587.0,1767084494.266875,1
0.0,-24.23,0.391946,34.77,2105427.0,1767084494.511875,1
0.0,-108.785,0.389384,34.77,2110374.0,1767084494.756875,1
0.0,19.835,0.389384,34.75,2115900.0,1767084495.526875,1
0.0,24.395,0.388103,34.75,2110442.0,1767084495.771875,1
0.0,22.97,0.385541,34.75,2111143.0,1767084496.016875,1
0.0,83.005,0.389384,34.77,2109899.0,1767084496.261875,1
0.0,-42.59,0.388103,34.77,2112984.0,1767084496.751875,1
0.0,-24.21,0.38426,34.77,2106703.0,1767084497.031875,1
0.0,-72.595,0.38426,34.75,2106309.0,1767084497.276875,1
0.0,1.26,0.386822,34.75,2108621.0,1767084497.521875,1
0.0,-3.206667,0.388103,34.75,2074628.0,1767084497.766875,1
0.0,26.73,0.385541,34.75,2075081.0,1767084498.011875,1
0.0,57.445,0.385541,34.77,2084704.0,1767084498.256875,1
0.0,35.05,0.386822,34.77,2084074.0,1767084498.501875,1
0.0,113.886667,0.388103,34.77,2082364.0,1767084498.781875,1
0.0,50.7,0.386822,34.77,2086410.0,1767084499.026875,1
0.0,-214.9,0.385541,34.73,2084980.0,1767084499.271875,1
0.0,-43.906667,0.385541,34.73,2083180.0,1767084499.516875,1
0.0,30.315,0.385541,34.73,2089363.0,1767084500.006875,1
0.0,-26.926667,0.38298,34.75,2090869.0,1767084500.251875,1
0.0,59.266667,0.380418,34.75,2097148.0,1767084500.531875,1
0.0,106.465,0.38426,34.75,2094823.0,1767084500.776875,1
0.0,-164.32,0.380418,34.77,2096274.0,1767084501.266875,1
0.0,-86.97,0.379137,34.77,2096037.0,1767084501.511875,1
0.0,38.58,0.38426,34.77,2100520.0,1767084501.756875,1
0.0,-12.4,0.38298,34.77,2060377.0,1767084502.001875,1
0.0,-24.65,0.38298,34.75,2058319.0,1767084502.281875,1
0.0,34.045,0.380418,34.75,2076194.0,1767084502.526875,1
0.0,-9.695,0.379137,34.75,2076102.0,1767084502.771875,1
0.0,23.016667,0.381699,34.75,2078495.0,1767084503.016875,1
0.0,-24.885,0.380418,34.75,2082002.0,1767084503.506875,1
0.0,-4.356667,0.379137,34.75,2083232.0,1767084503.751875,1
0.0,28.083333,0.38298,34.75,2079395.0,1767084504.031875,1
0.0,-28.865,0.381699,34.73,2063571.0,1767084504.276875,1
0.0,33.71,0.380418,34.73,2075455.0,1767084504.521875,1
0.0,18.033333,0.377856,34.73,2074915.0,1767084504.766875,1
0.0,-38.57,0.376575,34.73,2078667.0,1767084505.011875,1
0.0,28.225,0.381699,34.73,2082534.0,1767084505.256875,1
0.0,-1.88,0.379137,34.73,2076631.0,1767084505.501875,1
0.0,-10.53,0.379137,34.73,2078952.0,1767084505.781875,1
0.0,-26.33,0.377856,34.75,2080397.0,1767084506.271875,1
0.0,28.21,0.379137,34.75,2086724.0,1767084506.516875,1
0.0,25.065,0.377856,34.75,2090944.0,1767084506.761875,1
0.0,-26.775,0.374014,34.75,2087332.0,1767084507.006875,1
0.0,87.303333,0.374014,34.73,2089977.0,1767084507.251875,1
0.0,74.66,0.377856,34.73,2089656.0,1767084507.531875,1
0.0,-229.015,0.375294,34.73,2088984.0,1767084507.776875,1
0.0,18.46,0.371452,34.73,2090134.0,1767084508.266875,1
0.0,-44.375,0.374014,34.73,2091723.0,1767084508.511875,1
0.0,6.005,0.374014,34.73,2097895.0,1767084508.756875,1
0.0,-23.81,0.370171,34.73,2071173.0,1767084509.001875,1
0.0,26.343333,0.370171,34.73,2061181.0,1767084509.281875,1
0.0,49.01,0.371452,34.73,2075787.0,1767084509.526875,1
0.0,-12.6,0.375294,34.73,2079557.0,1767084509.771875,1
0.0,-12.123333,0.372733,34.73,2090942.0,1767084510.016875,1
0.0,6.085,0.370171,34.71,2096661.0,1767084510.261875,1
0.0,-66.165,0.370171,34.71,2100949.0,1767084510.506875,1
0.0,49.67,0.371452,34.71,2110681.0,1767084510.751875,1
0.0,13.636667,0.372733,34.71,2113123.0,1767084511.031875,1
0.0,-24.16,0.367609,34.71,2117820.0,1767084511.276875,1
0.0,20.683333,0.36889,34.71,2126149.0,1767084511.766875,1
0.0,92.26,0.375294,34.71,2132870.0,1767084512.011875,1
0.0,-77.92,0.370171,34.71,2134497.0,1767084512.256875,1
0.0,-105.483333,0.366328,34.71,2137063.0,1767084512.501875,1
0.0,-17.12,0.367609,34.71,2120623.0,1767084513.271875,1
0.0,20.196667,0.366328,34.71,2128278.0,1767084513.516875,1
0.0,-15.41,0.365047,34.71,2125487.0,1767084513.761875,1
0.0,63.245,0.366328,34.71,2131538.0,1767084514.006875,1
0.0,112.51,0.367609,34.73,2138745.0,1767084514.251875,1
0.0,-68.493333,0.366328,34.73,2138924.0,1767084514.531875,1
0.0,-90.49,0.363767,34.73,2143640.0,1767084514.776875,1
0.0,-45.246667,0.363767,34.71,2146409.0,1767084515.266875,1
0.0,33.845,0.366328,34.71,2133171.0,1767084515.511875,1
0.0,32.205,0.365047,34.71,2112425.0,1767084515.756875,1
0.0,-24.01,0.361205,34.71,2113333.0,1767084516.001875,1
0.0,81.966667,0.362486,34.68,2109953.0,1767084516.281875,1
0.0,19.925,0.362486,34.68,2114327.0,1767084516.526875,1
0.0,-43.085,0.365047,34.68,2119477.0,1767084516.771875,1
0.0,18.52,0.361205,34.68,2126648.0,1767084517.016875,1
0.0,-18.76,0.361205,34.68,2124816.0,1767084517.261875,1
0.0,12.426667,0.362486,34.68,2113058.0,1767084517.751875,1
0.0,-40.473333,0.362486,34.68,2120013.0,1767084518.031875,1
0.0,38.755,0.359924,34.68,2127511.0,1767084518.276875,1
0.0,29.845,0.357362,34.68,2133230.0,1767084518.521875,1
0.0,-41.346667,0.361205,34.68,2132908.0,1767084518.766875,1
0.0,-60.743333,0.357362,34.68,2142857.0,1767084519.501875,1
0.0,19.306667,0.362486,34.68,2150931.0,1767084519.781875,1
0.0,1.815,0.358643,34.68,2148561.0,1767084520.026875,1
0.0,0.295,0.358643,34.66,2152826.0,1767084520.271875,1
0.0,79.063333,0.356081,34.66,2154188.0,1767084520.516875,1
0.0,28.61,0.356081,34.66,2153494.0,1767084520.761875,1
0.0,-146.04,0.359924,34.66,2156703.0,1767084521.006875,1
0.0,-41.266667,0.359924,34.68,2151603.0,1767084521.251875,1
0.0,-14.83,0.356081,34.68,2151441.0,1767084521.531875,1
0.0,24.49,0.354801,34.68,2140436.0,1767084521.776875,1
0.0,-11.605,0.356081,34.68,2117972.0,1767084522.021875,1
0.0,37.656667,0.358643,34.68,2108415.0,1767084522.266875,1
0.0,30.97,0.356081,34.68,2108598.0,1767084523.001875,1
0.0,0.096667,0.354801,34.68,2109222.0,1767084523.281875,1
0.0,-61.875,0.357362,34.68,2102560.0,1767084523.526875,1
0.0,13.585,0.354801,34.68,2102671.0,1767084523.771875,1
0.0,-14.79,0.35352,34.68,2082485.0,1767084524.016875,1
0.0,-42.4,0.35352,34.66,2071668.0,1767084524.261875,1
0.0,10.3,0.354801,34.66,2069902.0,1767084524.751875,1
0.0,12.403333,0.350958,34.66,2074815.0,1767084525.031875,1
0.0,35.385,0.352239,34.65,2083230.0,1767084525.276875,1
0.0,0.28,0.354801,34.65,2078221.0,1767084525.521875,1
0.0,9.226667,0.35352,34.65,2080900.0,1767084525.766875,1
0.0,7.855,0.349677,34.65,2086890.0,1767084526.011875,1
0.0,-38.2,0.349677,34.66,2079614.0,1767084526.256875,1
0.0,21.043333,0.350958,34.66,2086337.0,1767084526.501875,1
0.0,14.61,0.352239,34.66,2095254.0,1767084526.781875,1
0.0,-29.945,0.350958,34.66,2092644.0,1767084527.026875,1
0.0,74.885,0.348396,34.65,2098035.0,1767084527.271875,1
0.0,26.133333,0.345834,34.65,2103780.0,1767084527.516875,1
0.0,18.235,0.359924,34.65,2103956.0,1767084527.761875,1
0.0,-98.805,0.348396,34.65,2109964.0,1767084528.006875,1
0.0,-17.936667,0.345834,34.65,2111603.0,1767084528.251875,1
0.0,-26.72,0.344554,34.65,2113397.0,1767084528.531875,1
0.0,17.63,0.345834,34.65,2118103.0,1767084528.776875,1
0.0,-6.215,0.347115,34.65,2115399.0,1767084529.021875,1
0.0,28.856667,0.345834,34.65,2118992.0,1767084529.266875,1
0.0,85.96,0.344554,34.65,2117769.0,1767084529.511875,1
0.0,-2.05,0.343273,34.65,2116473.0,1767084529.756875,1
0.0,-50.043333,0.345834,34.65,2113021.0,1767084530.281875,1
0.0,28.85,0.343273,34.65,2112508.0,1767084530.526875,1
0.0,29.895,0.341992,34.65,2116874.0,1767084530.771875,1
0.0,-48.666667,0.345834,34.65,2113872.0,1767084531.016875,1
0.0,74.02,0.344554,34.65,2117998.0,1767084531.506875,1
0.0,17.716667,0.340711,34.65,2115388.0,1767084531.751875,1
0.0,-12.256667,0.33943,34.65,2113414.0,1767084532.031875,1
0.0,-37.105,0.341992,34.65,2117373.0,1767084532.276875,1
0.0,-49.6,0.341992,34.65,2115918.0,1767084532.521875,1
0.0,0.656667,0.33943,34.65,2112630.0,1767084532.766875,1
0.0,34.36,0.340711,34.65,2102557.0,1767084533.011875,1
0.0,-5.7,0.343273,34.65,2102614.0,1767084533.256875,1
0.0,4.0,0.340711,34.65,2113084.0,1767084534.271875,1
0.0,-116.56,0.341992,34.65,2121240.0,1767084534.516875,1
0.0,-22.92,0.341992,34.65,2119471.0,1767084534.761875,1
0.0,16.1,0.341992,34.65,2124290.0,1767084535.006875,1
0.0,12.436667,0.338149,34.63,2125764.0,1767084535.251875,1
0.0,-34.87,0.335588,34.63,2127164.0,1767084535.531875,1
0.0,45.695,0.33943,34.63,2133002.0,1767084535.776875,1
0.0,-148.135,0.336868,34.63,2133521.0,1767084536.511875,1
0.0,-86.095,0.338149,34.63,2130462.0,1767084536.756875,1
0.0,36.11,0.340711,34.63,2132736.0,1767084537.001875,1
0.0,4.17,0.33943,34.63,2116800.0,1767084537.281875,1
0.0,37.005,0.335588,34.63,2123043.0,1767084537.771875,1
0.0,-2.743333,0.33943,34.63,2127749.0,1767084538.016875,1
0.0,17.455,0.33943,34.63,2128772.0,1767084538.261875,1
0.0,33.595,0.336868,34.63,2133649.0,1767084538.506875,1
0.0,-10.243333,0.334307,34.63,2133826.0,1767084538.751875,1
0.0,18.11,0.334307,34.63,2134032.0,1767084539.031875,1
0.0,35.325,0.335588,34.63,2133200.0,1767084539.276875,1
0.0,-4.195,0.336868,34.63,2117221.0,1767084539.521875,1
0.0,-6.596667,0.335588,34.63,2110896.0,1767084539.766875,1
0.0,-34.31,0.333026,34.63,2110632.0,1767084540.011875,1
0.0,-1.135,0.331745,34.61,2112439.0,1767084540.256875,1
0.0,14.835,0.331745,34.61,2109565.0,1767084541.026875,1
0.0,-31.155,0.330464,34.61,2104845.0,1767084541.271875,1
0.0,31.993333,0.331745,34.61,2079368.0,1767084541.516875,1
0.0,11.69,0.334307,34.61,2084088.0,1767084541.761875,1
0.0,-5.19,0.333026,34.61,2068581.0,1767084542.006875,1
0.0,85.47,0.330464,34.61,2075409.0,1767084542.251875,1
0.0,-74.85,0.334307,34.61,2091665.0,1767084542.776875,1
0.0,75.435,0.334307,34.61,2097296.0,1767084543.021875,1
0.0,24.96,0.330464,34.63,2106619.0,1767084543.266875,1
0.0,-162.995,0.329183,34.63,2112325.0,1767084543.511875,1
0.0,2.565,0.333026,34.63,2119654.0,1767084543.756875,1
0.0,0.086667,0.333026,34.63,2127074.0,1767084544.001875,1
0.0,-35.396667,0.331745,34.59,2125101.0,1767084544.281875,1
0.0,35.285,0.327902,34.59,2120407.0,1767084544.526875,1
0.0,24.495,0.326621,34.59,2131533.0,1767084544.771875,1
0.0,2.006667,0.329183,34.59,2139438.0,1767084545.016875,1
0.0,107.275,0.329183,34.57,2120549.0,1767084545.506875,1
0.0,-6.34,0.326621,34.57,2131352.0,1767084545.751875,1
0.0,-50.143333,0.327902,34.57,2152509.0,1767084546.031875,1
0.0,-32.855,0.329183,34.59,2170337.0,1767084546.521875,1
0.0,-56.246667,0.327902,34.59,2169827.0,1767084546.766875,1
0.0,0.835,0.325341,34.59,2171598.0,1767084547.011875,1
0.0,10.44,0.32406,34.59,2174483.0,1767084547.256875,1
0.0,-32.833333,0.325341,34.59,2163575.0,1767084547.501875,1
0.0,2.463333,0.326621,34.59,2157194.0,1767084547.781875,1
0.0,-10.26,0.325341,34.59,2167669.0,1767084548.026875,1
0.0,45.49,0.321498,34.57,2170348.0,1767084548.271875,1
0.0,44.803333,0.321498,34.57,2169055.0,1767084548.516875,1
0.0,-71.655,0.32406,34.57,2172789.0,1767084548.761875,1
0.0,-3.645,0.325341,34.57,2169298.0,1767084549.006875,1
0.0,-22.713333,0.321498,34.59,2167625.0,1767084549.251875,1
0.0,-2.4,0.320217,34.59,2169147.0,1767084549.531875,1
0.0,-1.425,0.333026,34.59,2163113.0,1767084549.776875,1
0.0,-5.555,0.32406,34.59,2163757.0,1767084550.021875,1
0.0,48.525,0.320217,34.59,2162075.0,1767084550.511875,1
0.0,-160.325,0.318936,34.59,2165770.0,1767084550.756875,1
0.0,-15.4,0.320217,34.59,2156362.0,1767084551.001875,1
0.0,-61.94,0.321498,34.59,2149561.0,1767084551.281875,1
0.0,26.315,0.320217,34.59,2144415.0,1767084551.526875,1
0.0,10.58,0.317655,34.59,2113741.0,1767084551.771875,1
0.0,-28.636667,0.318936,34.59,2110970.0,1767084552.016875,1
0.0,50.71,0.318936,34.59,2113383.0,1767084552.261875,1
0.0,-51.146667,0.317655,34.59,2110298.0,1767084552.751875,1
0.0,32.613333,0.315094,34.59,2113393.0,1767084553.031875,1
0.0,17.76,0.316374,34.59,2114017.0,1767084553.276875,1
0.0,-51.865,0.317655,34.59,2108474.0,1767084553.521875,1
0.0,35.893333,0.317655,34.59,2113034.0,1767084553.766875,1
0.0,37.325,0.317655,34.59,2117695.0,1767084554.011875,1
0.0,19.905,0.315094,34.57,2108867.0,1767084554.256875,1
0.0,121.88,0.313813,34.57,2093929.0,1767084554.501875,1
0.0,-1.31,0.316374,34.57,2090688.0,1767084554.781875,1
0.0,-134.82,0.316374,34.57,2101765.0,1767084555.026875,1
0.0,-45.15,0.313813,34.57,2110349.0,1767084555.271875,1
0.0,-0.05,0.312532,34.57,2105509.0,1767084555.516875,1
0.0,15.525,0.315094,34.57,2100152.0,1767084556.006875,1
0.0,-10.066667,0.313813,34.57,2090278.0,1767084556.251875,1
0.0,-37.823333,0.311251,34.57,2067512.0,1767084556.531875,1
0.0,12.565,0.30997,34.57,2072300.0,1767084556.776875,1
0.0,-7.94,0.311251,34.57,2055584.0,1767084557.021875,1
0.0,28.91,0.312532,34.57,2066415.0,1767084557.266875,1
0.0,40.08,0.311251,34.57,2074891.0,1767084557.511875,1
0.0,31.746667,0.320217,34.57,2067232.0,1767084558.001875,1
0.0,26.066667,0.30997,34.55,2067518.0,1767084558.281875,1
0.0,-38.25,0.311251,34.55,2062641.0,1767084558.526875,1
0.0,34.415,0.311251,34.55,2064449.0,1767084558.771875,1
0.0,27.936667,0.307408,34.55,2068519.0,1767084559.016875,1
0.0,117.836667,0.30997,34.55,2070469.0,1767084559.751875,1
0.0,21.656667,0.308689,34.55,2070428.0,1767084560.031875,1
0.0,-115.09,0.307408,34.55,2074565.0,1767084560.276875,1
0.0,-38.895,0.304847,34.55,2064899.0,1767084560.521875,1
0.0,14.68,0.308689,34.55,2065763.0,1767084560.766875,1
0.0,51.125,0.306128,34.55,2070222.0,1767084561.011875,1
0.0,-21.46,0.308689,34.55,2068335.0,1767084561.256875,1
0.0,131.336667,0.303566,34.55,2067253.0,1767084561.781875,1
0.0,-17.94,0.306128,34.55,2067567.0,1767084562.026875,1
0.0,-164.23,0.307408,34.55,2072466.0,1767084562.271875,1
0.0,-66.7,0.306128,34.55,2066584.0,1767084562.516875,1
0.0,-15.58,0.303566,34.55,2068577.0,1767084562.761875,1
0.0,-3.113333,0.303566,34.55,2067796.0,1767084563.251875,1
0.0,59.736667,0.304847,34.55,2075088.0,1767084563.531875,1
0.0,82.045,0.304847,34.55,2068153.0,1767084563.776875,1
0.0,17.93,0.301004,34.55,2069614.0,1767084564.021875,1
0.0,-18.04,0.301004,34.53,2073500.0,1767084564.266875,1
0.0,-100.11,0.302285,34.53,2067008.0,1767084564.511875,1
0.0,0.08,0.304847,34.53,2068947.0,1767084564.756875,1
0.0,29.04,0.303566,34.53,2074919.0,1767084565.001875,1
0.0,-41.576667,0.301004,34.55,2073450.0,1767084565.281875,1
0.0,47.25,0.299723,34.55,2076900.0,1767084565.526875,1
0.0,35.775,0.302285,34.55,2065637.0,1767084565.771875,1
0.0,4.423333,0.302285,34.55,2035220.0,1767084566.016875,1
0.0,35.7,0.298442,34.53,2051475.0,1767084566.506875,1
0.0,-69.066667,0.297161,34.53,2058288.0,1767084566.751875,1
0.0,7.376667,0.302285,34.53,2065689.0,1767084567.031875,1
0.0,-51.465,0.301004,34.55,2071621.0,1767084567.521875,1
0.0,23.993333,0.298442,34.55,2077215.0,1767084567.766875,1
0.0,14.585,0.297161,34.55,2069806.0,1767084568.011875,1
0.0,-50.145,0.299723,34.53,2070554.0,1767084568.256875,1
0.0,20.536667,0.299723,34.53,2068776.0,1767084568.501875,1
0.0,32.256667,0.295881,34.53,2078308.0,1767084568.781875,1
0.0,35.33,0.2946,34.53,2080625.0,1767084569.026875,1
0.0,-21.69,0.297161,34.53,2089135.0,1767084569.271875,1
0.0,-38.153333,0.297161,34.53,2094623.0,1767084569.516875,1
0.0,-76.295,0.298442,34.53,2097392.0,1767084569.761875,1
0.0,7.615,0.295881,34.53,2105180.0,1767084570.006875,1
0.0,20.453333,0.293319,34.53,2110516.0,1767084570.251875,1
0.0,-36.32,0.295881,34.53,2114236.0,1767084570.531875,1
0.0,36.26,0.297161,34.53,2122130.0,1767084570.776875,1
0.0,62.62,0.295881,34.53,2117861.0,1767084571.021875,1
0.0,105.446667,0.2946,34.5,2116035.0,1767084571.266875,1
0.0,-24.065,0.292038,34.5,2118454.0,1767084571.511875,1
0.0,-165.755,0.295881,34.5,2115034.0,1767084571.756875,1
0.0,-14.123333,0.295881,34.5,2117908.0,1767084572.001875,1
0.0,49.37,0.2946,34.53,2114532.0,1767084572.281875,1
0.0,-14.663333,0.297161,34.53,2112431.0,1767084573.016875,1
0.0,75.055,0.297161,34.5,2113993.0,1767084573.261875,1
0.0,75.865,0.297161,34.5,2112815.0,1767084573.506875,1
0.0,-28.83,0.295881,34.5,2109885.0,1767084573.751875,1
0.0,-78.826667,0.295881,34.5,2115561.0,1767084574.031875,1
0.0,-4.555,0.297161,34.5,2122942.0,1767084574.276875,1
0.0,-18.325,0.297161,34.5,2122366.0,1767084574.521875,1
0.0,23.686667,0.2946,34.5,2112347.0,1767084574.766875,1
0.0,5.685,0.2946,34.5,2117687.0,1767084575.011875,1
0.0,-44.115,0.295881,34.49,2120322.0,1767084575.256875,1
0.0,119.096667,0.295881,34.49,2125531.0,1767084575.501875,1
0.0,28.073333,0.297161,34.49,2132427.0,1767084575.781875,1
0.0,-0.205,0.293319,34.5,2147212.0,1767084576.271875,1
0.0,-26.046667,0.292038,34.5,2146005.0,1767084576.516875,1
0.0,23.0,0.297161,34.5,2135696.0,1767084576.761875,1
0.0,-29.136667,0.2946,34.5,2140686.0,1767084577.251875,1
0.0,5.21,0.290757,34.5,2150202.0,1767084577.776875,1
0.0,-64.915,0.295881,34.5,2151371.0,1767084578.021875,1
0.0,19.086667,0.2946,34.49,2160119.0,1767084578.266875,1
0.0,1.355,0.293319,34.49,2161294.0,1767084578.511875,1
0.0,-51.325,0.290757,34.49,2144501.0,1767084578.756875,1
0.0,37.47,0.292038,34.49,2142533.0,1767084579.001875,1
0.0,6.373333,0.292038,34.49,2157400.0,1767084579.281875,1
0.0,42.7,0.288195,34.49,2159352.0,1767084579.771875,1
0.0,1.95,0.288195,34.49,2163418.0,1767084580.016875,1
0.0,-54.48,0.290757,34.47,2154607.0,1767084580.261875,1
0.0,18.105,0.292038,34.47,2152906.0,1767084580.506875,1
0.0,28.376667,0.292038,34.47,2151261.0,1767084580.751875,1
0.0,-22.013333,0.286914,34.47,2138143.0,1767084581.031875,1
0.0,34.815,0.286914,34.49,2135000.0,1767084581.276875,1
0.0,117.47,0.289476,34.49,2137354.0,1767084581.521875,1
0.0,58.546667,0.289476,34.49,2135089.0,1767084581.766875,1
0.0,-142.645,0.288195,34.49,2135557.0,1767084582.011875,1
0.0,-15.32,0.285634,34.49,2130099.0,1767084582.501875,1
0.0,49.123333,0.288195,34.49,2108513.0,1767084582.781875,1
0.0,48.605,0.289476,34.49,2085999.0,1767084583.026875,1
0.0,-87.92,0.289476,34.49,2093284.0,1767084583.271875,1
0.0,-23.113333,0.286914,34.49,2103550.0,1767084583.516875,1
0.0,48.35,0.290757,34.49,2122638.0,1767084584.006875,1
0.0,-12.793333,0.290757,34.49,2123205.0,1767084584.251875,1
0.0,-47.386667,0.289476,34.49,2128535.0,1767084584.531875,1
0.0,13.07,0.285634,34.49,2122548.0,1767084584.776875,1
0.0,-17.47,0.286914,34.49,2105192.0,1767084585.021875,1
0.0,12.446667,0.289476,34.49,2104246.0,1767084585.266875,1
0.0,25.31,0.299723,34.49,2109579.0,1767084585.511875,1
0.0,4.005,0.285634,34.49,2108620.0,1767084585.756875,1
0.0,-67.91,0.286914,34.47,2103519.0,1767084586.526875,1
0.0,14.675,0.286914,34.47,2106748.0,1767084586.771875,1
0.0,-0.463333,0.283072,34.47,2100710.0,1767084587.016875,1
0.0,-52.295,0.284353,34.49,2074205.0,1767084587.261875,1
0.0,32.885,0.285634,34.49,2058666.0,1767084587.506875,1
0.0,31.693333,0.284353,34.49,2064736.0,1767084587.751875,1
0.0,12.806667,0.286914,34.49,2068031.0,1767084588.031875,1
0.0,4.635,0.295881,34.47,2075020.0,1767084588.276875,1
0.0,-60.706667,0.285634,34.47,2068362.0,1767084588.766875,1
0.0,22.235,0.285634,34.47,2063908.0,1767084589.011875,1
0.0,1.1,0.285634,34.45,2066422.0,1767084589.256875,1
0.0,-53.326667,0.284353,34.45,2060710.0,1767084589.501875,1
0.0,35.473333,0.283072,34.45,2069787.0,1767084589.781875,1
0.0,32.525,0.284353,34.45,2073526.0,1767084590.026875,1
0.0,62.165,0.285634,34.47,2076528.0,1767084590.271875,1
0.0,98.32,0.281791,34.47,2083883.0,1767084590.516875,1
0.0,-212.11,0.281791,34.47,2084886.0,1767084590.761875,1
0.0,-76.635,0.2946,34.47,2090432.0,1767084591.006875,1
0.0,13.75,0.285634,34.45,2092999.0,1767084591.251875,1
0.0,-0.636667,0.284353,34.45,2096326.0,1767084591.531875,1
0.0,27.815,0.281791,34.45,2103081.0,1767084591.776875,1
0.0,25.73,0.284353,34.45,2102169.0,1767084592.266875,1
0.0,65.87,0.285634,34.45,2099095.0,1767084592.511875,1
0.0,-146.85,0.283072,34.45,2095620.0,1767084592.756875,1
0.0,8.15,0.281791,34.45,2097643.0,1767084593.001875,1
0.0,10.08,0.283072,34.45,2045410.0,1767084593.526875,1
0.0,10.14,0.284353,34.45,2061083.0,1767084593.771875,1
0.0,-25.543333,0.281791,34.45,2058276.0,1767084594.016875,1
0.0,110.805,0.277948,34.47,2060196.0,1767084594.261875,1
0.0,116.73,0.277948,34.47,2067619.0,1767084594.506875,1
0.0,-233.84,0.28051,34.47,2063612.0,1767084594.751875,1
0.0,-11.553333,0.28051,34.47,2064920.0,1767084595.031875,1
0.0,57.705,0.277948,34.45,2070936.0,1767084595.276875,1
0.0,-9.13,0.276668,34.45,2070721.0,1767084595.521875,1
0.0,61.29,0.28051,34.45,2081946.0,1767084596.011875,1
0.0,80.08,0.28051,34.47,2083160.0,1767084596.256875,1
0.0,6.62,0.276668,34.47,2086249.0,1767084596.501875,1
0.0,-99.773333,0.279229,34.47,2095875.0,1767084596.781875,1
0.0,-50.295,0.279229,34.47,2097296.0,1767084597.026875,1
0.0,-59.2,0.281791,34.45,2102420.0,1767084597.271875,1
0.0,24.735,0.277948,34.45,2081666.0,1767084597.761875,1
0.0,18.2,0.276668,34.45,2086145.0,1767084598.006875,1
0.0,92.033333,0.28051,34.43,2095987.0,1767084598.251875,1
0.0,25.963333,0.277948,34.43,2096935.0,1767084598.531875,1
0.0,1.545,0.276668,34.43,2104232.0,1767084598.776875,1
0.0,-168.825,0.275387,34.43,2110029.0,1767084599.021875,1
0.0,-48.043333,0.288195,34.45,2111731.0,1767084599.266875,1
0.0,46.74,0.277948,34.45,2116862.0,1767084599.511875,1
0.0,32.18,0.279229,34.45,2091467.0,1767084599.756875,1
0.0,-67.146667,0.276668,34.45,2068658.0,1767084600.001875,1
0.0,1.03,0.276668,34.43,2071365.0,1767084600.281875,1
0.0,52.21,0.275387,34.43,2073786.0,1767084600.526875,1
0.0,-26.075,0.276668,34.43,2084123.0,1767084600.771875,1
0.0,22.313333,0.277948,34.43,2093727.0,1767084601.016875,1
0.0,32.075,0.276668,34.43,2104585.0,1767084601.261875,1
0.0,-32.525,0.274106,34.43,2106171.0,1767084601.506875,1
0.0,5.23,0.275387,34.43,2112429.0,1767084601.751875,1
0.0,13.6,0.277948,34.43,2120591.0,1767084602.031875,1
0.0,-26.035,0.276668,34.43,2118376.0,1767084602.276875,1
0.0,37.32,0.274106,34.43,2129741.0,1767084602.766875,1
0.0,46.885,0.277948,34.43,2131778.0,1767084603.011875,1
0.0,59.64,0.277948,34.43,2138508.0,1767084603.256875,1
0.0,-148.626667,0.274106,34.43,2137223.0,1767084603.501875,1
0.0,-46.023333,0.274106,34.43,2140717.0,1767084603.781875,1
0.0,36.38,0.276668,34.43,2146710.0,1767084604.026875,1
0.0,0.395,0.276668,34.43,2130123.0,1767084604.271875,1
0.0,4.536667,0.276668,34.43,2108317.0,1767084604.516875,1
0.0,-14.16,0.274106,34.43,2115905.0,1767084605.006875,1
0.0,34.8,0.276668,34.43,2118974.0,1767084605.251875,1
0.0,24.273333,0.277948,34.43,2120312.0,1767084605.531875,1
0.0,-34.495,0.274106,34.43,2120164.0,1767084605.776875,1
0.0,23.235,0.274106,34.43,2124671.0,1767084606.021875,1
0.0,16.936667,0.276668,34.41,2100659.0,1767084606.266875,1
0.0,-42.375,0.277948,34.41,2091500.0,1767084606.511875,1
0.0,33.36,0.276668,34.41,2101273.0,1767084606.756875,1
0.0,13.53,0.276668,34.41,2103756.0,1767084607.526875,1
0.0,-21.245,0.276668,34.41,2099432.0,1767084607.771875,1
0.0,13.32,0.272825,34.41,2101452.0,1767084608.016875,1
0.0,20.33,0.275387,34.41,2105075.0,1767084608.261875,1
0.0,-31.435,0.275387,34.41,2097431.0,1767084608.506875,1
0.0,40.713333,0.276668,34.41,2100785.0,1767084608.751875,1
0.0,91.536667,0.276668,34.41,2106210.0,1767084609.031875,1
0.0,1.41,0.274106,34.41,2102142.0,1767084609.276875,1
0.0,-27.596667,0.275387,34.41,2105487.0,1767084609.766875,1
0.0,-28.16,0.275387,34.41,2106017.0,1767084610.011875,1
0.0,29.09,0.275387,34.41,2109844.0,1767084610.256875,1
0.0,-22.166667,0.272825,34.41,2065432.0,1767084610.501875,1
0.0,-17.123333,0.272825,34.41,2055345.0,1767084610.781875,1
0.0,44.365,0.275387,34.41,2063881.0,1767084611.026875,1
0.0,-14.2,0.275387,34.39,2064195.0,1767084611.271875,1
0.0,5.136667,0.271544,34.39,2070658.0,1767084611.516875,1
0.0,-68.93,0.272825,34.39,2068903.0,1767084612.006875,1
0.0,19.443333,0.275387,34.41,2072108.0,1767084612.251875,1
0.0,-15.66,0.274106,34.41,2057621.0,1767084612.531875,1
0.0,-17.84,0.271544,34.41,2036615.0,1767084612.776875,1
0.0,60.23,0.271544,34.41,2037829.0,1767084613.021875,1
0.0,83.47,0.275387,34.43,2054644.0,1767084613.266875,1
0.0,-21.745,0.275387,34.43,2058464.0,1767084613.511875,1
0.0,70.04,0.276668,34.43,2063355.0,1767084613.756875,1
0.0,42.423333,0.272825,34.43,2074823.0,1767084614.001875,1
0.0,-150.643333,0.274106,34.39,2076190.0,1767084614.281875,1
0.0,13.7,0.274106,34.39,2079673.0,1767084614.526875,1
0.0,-32.663333,0.271544,34.39,2058527.0,1767084615.016875,1
0.0,40.94,0.271544,34.41,2054537.0,1767084615.261875,1
0.0,25.86,0.272825,34.41,2061874.0,1767084615.506875,1
0.0,-34.753333,0.272825,34.41,2069559.0,1767084615.751875,1
0.0,25.723333,0.272825,34.41,2081026.0,1767084616.031875,1
0.0,-2.025,0.271544,34.39,2080329.0,1767084616.276875,1
0.0,-17.035,0.271544,34.39,2085028.0,1767084616.521875,1
0.0,25.393333,0.274106,34.39,2094296.0,1767084616.766875,1
0.0,-9.03,0.274106,34.39,2083604.0,1767084617.011875,1
0.0,-5.605,0.270263,34.41,2068770.0,1767084617.256875,1
0.0,39.433333,0.267701,34.41,2060185.0,1767084617.501875,1
0.0,25.27,0.270263,34.41,2069998.0,1767084617.781875,1
0.0,15.705,0.270263,34.39,2090102.0,1767084618.271875,1
0.0,-19.986667,0.267701,34.39,2090001.0,1767084618.516875,1
0.0,-29.11,0.266421,34.39,2093681.0,1767084618.761875,1
0.0,-8.755,0.270263,34.39,2096328.0,1767084619.006875,1
0.0,-40.346667,0.268982,34.39,2094316.0,1767084619.251875,1
0.0,10.633333,0.270263,34.39,2101777.0,1767084619.531875,1
0.0,26.665,0.267701,34.39,2098629.0,1767084619.776875,1
0.0,-4.155,0.267701,34.39,2101693.0,1767084620.021875,1
0.0,77.66,0.268982,34.39,2101402.0,1767084620.511875,1
0.0,-171.5,0.267701,34.39,2103714.0,1767084620.756875,1
0.0,-61.626667,0.267701,34.39,2103277.0,1767084621.001875,1
0.0,-62.96,0.281791,34.37,2098596.0,1767084621.281875,1
0.0,22.495,0.270263,34.37,2102454.0,1767084621.526875,1
0.0,26.32,0.267701,34.37,2103748.0,1767084621.771875,1
0.0,-31.166667,0.26514,34.37,2102462.0,1767084622.016875,1
0.0,97.085,0.26514,34.39,2106186.0,1767084622.261875,1
0.0,-15.426667,0.268982,34.39,2110041.0,1767084622.751875,1
0.0,-127.976667,0.266421,34.39,2116746.0,1767084623.031875,1
0.0,-60.75,0.26514,34.37,2114235.0,1767084623.276875,1
0.0,-19.57,0.267701,34.37,2112527.0,1767084623.521875,1
0.0,42.12,0.267701,34.37,2103058.0,1767084623.766875,1
0.0,9.835,0.268982,34.37,2095709.0,1767084624.011875,1
0.0,-17.085,0.266421,34.37,2096439.0,1767084624.256875,1
0.0,42.166667,0.26514,34.37,2106313.0,1767084624.501875,1
0.0,85.61,0.266421,34.37,2109348.0,1767084624.781875,1
0.0,-111.755,0.268982,34.39,2116178.0,1767084625.271875,1
0.0,15.515,0.26514,34.39,2122049.0,1767084625.761875,1
0.0,0.6,0.268982,34.39,2120749.0,1767084626.006875,1
0.0,-25.936667,0.268982,34.39,2092740.0,1767084626.251875,1
0.0,45.136667,0.267701,34.39,2094270.0,1767084626.531875,1
0.0,13.1,0.26514,34.39,2097815.0,1767084626.776875,1
0.0,6.82,0.26514,34.39,2103246.0,1767084627.021875,1
0.0,71.54,0.26514,34.37,2108286.0,1767084627.266875,1
0.0,-50.355,0.267701,34.37,2102413.0,1767084627.511875,1
0.0,11.365,0.267701,34.37,2103604.0,1767084628.526875,1
0.0,52.425,0.266421,34.37,2110611.0,1767084628.771875,1
0.0,-32.086667,0.263859,34.37,2108458.0,1767084629.016875,1
0.0,36.175,0.263859,34.39,2110918.0,1767084629.261875,1
0.0,3.045,0.26514,34.39,2117500.0,1767084629.506875,1
0.0,-60.04,0.267701,34.39,2114399.0,1767084629.751875,1
0.0,31.42,0.266421,34.39,2119943.0,1767084630.031875,1
0.0,15.5,0.26514,34.34,2119342.0,1767084630.276875,1
0.0,-52.145,0.262578,34.34,2116017.0,1767084630.521875,1
0.0,18.553333,0.26514,34.34,2121573.0,1767084630.766875,1
0.0,10.88,0.266421,34.34,2117525.0,1767084631.011875,1
0.0,-10.55,0.26514,34.39,2118022.0,1767084631.256875,1
0.0,14.933333,0.262578,34.39,2120135.0,1767084631.501875,1
0.0,-34.916667,0.263859,34.39,2113635.0,1767084631.781875,1
0.0,25.06,0.266421,34.39,2114172.0,1767084632.026875,1
0.0,6.41,0.26514,34.37,2109623.0,1767084632.271875,1
0.0,-48.033333,0.262578,34.37,2103332.0,1767084632.516875,1
0.0,23.29,0.262578,34.37,2104697.0,1767084632.761875,1
0.0,-2.255,0.26514,34.37,2097882.0,1767084633.006875,1
0.0,24.386667,0.26514,34.34,2092676.0,1767084633.531875,1
0.0,-21.845,0.262578,34.34,2084163.0,1767084633.776875,1
0.0,19.795,0.263859,34.34,2080095.0,1767084634.021875,1
0.0,31.016667,0.263859,34.37,2085119.0,1767084634.266875,1
0.0,-10.29,0.266421,34.37,2083100.0,1767084634.511875,1
0.0,42.865,0.262578,34.37,2084420.0,1767084634.756875,1
0.0,85.683333,0.262578,34.34,2089317.0,1767084635.281875,1
0.0,-13.61,0.266421,34.34,2095494.0,1767084635.526875,1
0.0,-84.99,0.267701,34.34,2098748.0,1767084635.771875,1
0.0,-76.403333,0.262578,34.34,2096966.0,1767084636.016875,1
0.0,5.05,0.263859,34.37,2087874.0,1767084636.506875,1
0.0,-39.056667,0.266421,34.37,2091706.0,1767084636.751875,1
0.0,28.273333,0.26514,34.37,2090739.0,1767084637.031875,1
0.0,-2.965,0.261297,34.37,2090779.0,1767084637.276875,1
0.0,18.74,0.261297,34.37,2094147.0,1767084637.521875,1
0.0,5.923333,0.266421,34.37,2087378.0,1767084637.766875,1
0.0,-30.975,0.263859,34.37,2086708.0,1767084638.011875,1
0.0,28.73,0.26514,34.39,2091522.0,1767084638.256875,1
0.0,-0.846667,0.261297,34.39,2072768.0,1767084638.501875,1
0.0,20.53,0.261297,34.39,2068703.0,1767084638.781875,1
0.0,58.775,0.263859,34.39,2086151.0,1767084639.026875,1
0.0,30.79,0.263859,34.37,2089732.0,1767084639.271875,1
0.0,55.823333,0.262578,34.37,2092627.0,1767084639.516875,1
0.0,46.4,0.262578,34.37,2098468.0,1767084639.761875,1
0.0,-154.23,0.261297,34.37,2100867.0,1767084640.006875,1
0.0,-86.8,0.26514,34.34,2103171.0,1767084640.251875,1
0.0,1.266667,0.26514,34.34,2104626.0,1767084640.531875,1
0.0,29.825,0.261297,34.34,2082427.0,1767084641.021875,1
0.0,16.846667,0.263859,34.37,2087989.0,1767084641.266875,1
0.0,-38.295,0.263859,34.37,2095594.0,1767084641.511875,1
0.0,50.875,0.263859,34.37,2105878.0,1767084641.756875,1
0.0,30.353333,0.262578,34.37,2104162.0,1767084642.001875,1
0.0,22.746667,0.262578,34.34,2108649.0,1767084642.281875,1
0.0,6.68,0.262578,34.34,2104646.0,1767084642.526875,1
0.0,-61.21,0.263859,34.34,2098573.0,1767084642.771875,1
0.0,-3.933333,0.262578,34.34,2101395.0,1767084643.016875,1
0.0,14.625,0.260016,34.34,2110633.0,1767084643.261875,1
0.0,-34.16,0.257455,34.34,2111885.0,1767084643.506875,1
0.0,11.575,0.262578,34.34,2114174.0,1767084644.276875,1
0.0,47.645,0.260016,34.34,2102938.0,1767084644.521875,1
0.0,28.47,0.261297,34.34,2088916.0,1767084644.766875,1
0.0,-29.755,0.26514,34.34,2066083.0,1767084645.011875,1
0.0,-10.04,0.26514,34.33,2051304.0,1767084645.256875,1
0.0,-69.883333,0.262578,34.33,2041000.0,1767084645.501875,1
0.0,-105.573333,0.262578,34.33,2049318.0,1767084645.781875,1
0.0,27.68,0.263859,34.33,2065742.0,1767084646.026875,1
0.0,90.96,0.263859,34.33,2057312.0,1767084646.516875,1
0.0,-20.72,0.262578,34.33,2049127.0,1767084646.761875,1
0.0,10.2,0.260016,34.33,2036707.0,1767084647.006875,1
0.0,2.65,0.262578,34.34,2027361.0,1767084647.251875,1
0.0,-1.366667,0.262578,34.34,2013910.0,1767084647.531875,1
0.0,-31.2,0.262578,34.34,2007692.0,1767084647.776875,1
0.0,18.32,0.260016,34.34,2004190.0,1767084648.021875,1
0.0,20.22,0.260016,34.33,1995857.0,1767084648.266875,1
0.0,43.285,0.262578,34.33,1984786.0,1767084648.756875,1
0.0,-33.826667,0.261297,34.33,1977113.0,1767084649.001875,1
0.0,12.753333,0.256174,34.33,1971146.0,1767084649.281875,1
10.0,-65.68,0.268998,34.77,1738217.5,1721466928.769478,1
10.0,6.405,0.318955,34.77,1747399.5,1721466929.012957,1
10.0,-11.3475,0.308708,34.77,1773100.0,1721466929.256435,1
10.0,-37.9525,0.288213,34.77,1794910.0,1721466929.560783,1
10.0,90.4725,0.281808,34.77,1808748.0,1721466929.804261,1
10.0,-67.02,0.283089,34.77,1825487.0,1721466930.047739,1
10.0,-479.4025,0.277965,34.77,1829982.0,1721466930.291217,1
10.0,-138.995,0.276684,34.77,1839604.0,1721466930.534696,1
10.0,55.61,0.275403,34.77,1852819.5,1721466930.778174,1
10.0,214.875,0.272841,34.77,1862937.5,1721466931.021652,1
10.0,400.2,0.274122,34.75,1863331.0,1721466931.26513,1
10.0,141.9475,0.276684,34.75,1869949.0,1721466931.508609,1
10.0,62.0675,0.274122,34.75,1870428.0,1721466931.752087,1
10.0,-46.1375,0.272841,34.75,1868475.5,1721466932.056435,1
10.0,-39.7775,0.272841,34.75,1872188.5,1721466932.299913,1
10.0,66.645,0.274122,34.75,1913070.5,1721466932.543391,1
10.0,-1.4025,0.272841,34.75,1922118.5,1721466932.78687,1
10.0,-3.876667,0.27156,34.75,1896786.0,1721466933.030348,1
10.0,-12.42,0.274122,34.73,1897545.0,1721466933.273826,1
10.0,3.9825,0.275403,34.73,1901471.0,1721466933.517304,1
10.0,59.7025,0.277965,34.73,1895557.0,1721466933.760783,1
10.0,-12.93,0.277965,34.73,1897041.0,1721466934.004261,1
10.0,-55.165,0.275403,34.75,1905688.0,1721466934.308609,1
10.0,-4.305,0.274122,34.75,1904654.0,1721466934.552087,1
10.0,-8.4,0.279246,34.75,1908112.0,1721466934.795565,1
10.0,-31.92,0.277965,34.75,1904046.0,1721466935.039043,1
10.0,13.485,0.277965,34.77,1901483.0,1721466935.282521,1
10.0,-8.74,0.275403,34.77,1907130.0,1721466935.526,1
10.0,-24.2275,0.277965,34.77,1898543.0,1721466935.769478,1
10.0,31.375,0.279246,34.77,1896334.5,1721466936.012957,1
10.0,-19.925,0.279246,34.75,1898181.5,1721466936.256435,1
10.0,-29.83,0.275403,34.75,1874675.0,1721466936.560783,1
10.0,0.0775,0.272841,34.75,1867653.0,1721466936.804261,1
10.0,-12.0375,0.272841,34.75,1866273.5,1721466937.047739,1
10.0,-39.23,0.275403,34.77,1843609.0,1721466937.291217,1
10.0,-45.8525,0.275403,34.77,1836198.5,1721466937.534696,1
10.0,1.095,0.274122,34.77,1836937.5,1721466937.778174,1
10.0,40.755,0.272841,34.77,1837062.0,1721466938.021652,1
10.0,58.423333,0.276684,34.73,1814601.0,1721466938.26513,1
10.0,78.38,0.279246,34.73,1807026.5,1721466938.508609,1
10.0,-9.87,0.275403,34.73,1810316.0,1721466938.752087,1
10.0,-96.9925,0.276684,34.73,1799136.5,1721466939.056435,1
10.0,-9.845,0.279246,34.73,1802696.0,1721466939.299913,1
10.0,-19.01,0.277965,34.73,1810575.0,1721466939.543391,1
10.0,34.4475,0.279246,34.73,1800799.0,1721466939.78687,1
10.0,43.69,0.275403,34.73,1804856.0,1721466940.030348,1
10.0,-26.16,0.275403,34.73,1808180.0,1721466940.273826,1
10.0,24.765,0.277965,34.73,1807305.0,1721466940.517304,1
10.0,37.0775,0.279246,34.73,1813621.0,1721466940.760783,1
10.0,14.53,0.277965,34.73,1815153.5,1721466941.004261,1
10.0,-21.58,0.275403,34.73,1813081.0,1721466941.308609,1
10.0,-10.515,0.275403,34.73,1819523.0,1721466941.552087,1
10.0,1.13,0.276684,34.73,1836721.0,1721466941.795565,1
10.0,-26.4725,0.277965,34.73,1854294.0,1721466942.039043,1
10.0,16.175,0.277965,34.75,1854094.0,1721466942.282521,1
10.0,14.195,0.276684,34.75,1858955.0,1721466942.526,1
10.0,-13.725,0.275403,34.75,1858195.0,1721466942.769478,1
10.0,-5.2775,0.297179,34.75,1853547.0,1721466943.012957,1
10.0,39.995,0.288213,34.75,1854969.5,1721466943.256435,1
10.0,-33.54,0.28437,34.75,1851624.0,1721466943.560783,1
10.0,-37.28,0.283089,34.75,1844275.5,1721466943.804261,1
10.0,3.0775,0.286932,34.75,1845994.0,1721466944.047739,1
10.0,8.245,0.286932,34.73,1850304.0,1721466944.291217,1
10.0,-24.6925,0.285651,34.73,1838048.0,1721466944.534696,1
10.0,22.82,0.28437,34.73,1847978.0,1721466944.778174,1
10.0,13.8525,0.281808,34.73,1856932.5,1721466945.021652,1
10.0,-5.966667,0.28437,34.73,1849845.0,1721466945.26513,1
10.0,30.155,0.285651,34.73,1843339.0,1721466945.508609,1
10.0,-21.04,0.28437,34.73,1844036.0,1721466945.752087,1
10.0,-45.46,0.281808,34.73,1832876.0,1721466946.056435,1
10.0,31.835,0.283089,34.73,1829483.0,1721466946.299913,1
10.0,9.9875,0.28437,34.73,1833339.5,1721466946.543391,1
10.0,-33.745,0.28437,34.73,1822839.5,1721466946.78687,1
10.0,36.79,0.281808,34.73,1818450.0,1721466947.030348,1
10.0,17.84,0.281808,34.73,1820744.5,1721466947.273826,1
10.0,-32.2025,0.281808,34.73,1810172.0,1721466947.517304,1
10.0,29.8975,0.28437,34.73,1804368.0,1721466947.760783,1
10.0,-7.325,0.28437,34.73,1806436.5,1721466948.004261,1
10.0,-33.765,0.281808,34.71,1796320.0,1721466948.308609,1
10.0,34.06,0.281808,34.71,1815432.0,1721466948.552087,1
10.0,-3.64,0.283089,34.71,1819937.0,1721466948.795565,1
10.0,-56.8775,0.285651,34.71,1801926.5,1721466949.039043,1
10.0,33.7675,0.285651,34.73,1802912.5,1721466949.282521,1
10.0,26.375,0.281808,34.73,1808720.0,1721466949.526,1
10.0,-27.325,0.280527,34.73,1795433.0,1721466949.769478,1
10.0,25.5075,0.28437,34.73,1786448.5,1721466950.012957,1
10.0,28.3375,0.283089,34.71,1786341.0,1721466950.256435,1
10.0,-35.2025,0.283089,34.71,1779120.0,1721466950.560783,1
10.0,11.87,0.280527,34.71,1770694.0,1721466950.804261,1
10.0,19.185,0.280527,34.71,1776101.0,1721466951.047739,1
10.0,-5.8575,0.281808,34.71,1783509.0,1721466951.291217,1
10.0,37.9,0.283089,34.71,1768389.0,1721466951.534696,1
10.0,7.525,0.283089,34.71,1766483.0,1721466951.778174,1
10.0,-49.0575,0.280527,34.71,1771030.0,1721466952.021652,1
10.0,-89.526667,0.281808,34.73,1750979.0,1721466952.26513,1
10.0,53.2825,0.281808,34.73,1747253.5,1721466952.508609,1
10.0,33.335,0.283089,34.73,1750821.5,1721466952.752087,1
10.0,-55.4525,0.283089,34.73,1728049.0,1721466953.056435,1
10.0,46.8075,0.280527,34.71,1721970.0,1721466953.299913,1
10.0,33.06,0.279246,34.71,1725960.5,1721466953.543391,1
10.0,-36.0525,0.281808,34.71,1712178.0,1721466953.78687,1
10.0,36.106667,0.285651,34.71,1703088.0,1721466954.030348,1
10.0,26.7425,0.283089,34.73,1722142.0,1721466954.273826,1
10.0,-31.2175,0.283089,34.73,1749767.0,1721466954.517304,1
10.0,-22.65,0.294617,34.73,1732673.0,1721466954.760783,1
10.0,35.765,0.29846,34.73,1726706.0,1721466955.004261,1
10.0,-9.345,0.297179,34.73,1721605.0,1721466955.308609,1
10.0,9.325,0.295898,34.73,1702543.0,1721466955.552087,1
10.0,14.086667,0.292055,34.73,1700012.0,1721466955.795565,1
10.0,-29.6375,0.292055,34.73,1706469.0,1721466956.039043,1
10.0,-79.12,0.293336,34.71,1689157.5,1721466956.282521,1
10.0,46.1,0.293336,34.71,1714672.0,1721466956.526,1
10.0,26.69,0.292055,34.71,1720511.5,1721466956.769478,1
10.0,-28.2875,0.289494,34.71,1705724.0,1721466957.012957,1
10.0,22.585,0.289494,34.71,1693316.0,1721466957.256435,1
10.0,41.7875,0.292055,34.71,1695731.0,1721466957.560783,1
10.0,3.185,0.293336,34.71,1686627.0,1721466957.804261,1
10.0,-115.7125,0.293336,34.71,1678762.5,1721466958.047739,1
10.0,29.2475,0.289494,34.71,1681860.0,1721466958.291217,1
10.0,15.27,0.288213,34.71,1696645.5,1721466958.534696,1
10.0,-39.7375,0.290775,34.71,1684518.0,1721466958.778174,1
10.0,37.1175,0.292055,34.71,1683365.5,1721466959.021652,1
10.0,35.53,0.292055,34.71,1691239.0,1721466959.26513,1
10.0,2.395,0.289494,34.71,1696857.0,1721466959.508609,1
10.0,-33.49,0.288213,34.71,1688066.0,1721466959.752087,1
10.0,42.345,0.293336,34.71,1696725.0,1721466960.056435,1
10.0,-48.5025,0.293336,34.71,1710737.0,1721466960.299913,1
10.0,-75.4875,0.290775,34.71,1710050.5,1721466960.543391,1
10.0,41.1225,0.288213,34.71,1710782.0,1721466960.78687,1
10.0,21.23,0.286932,34.71,1719813.0,1721466961.030348,1
10.0,-37.765,0.289494,34.71,1720402.5,1721466961.273826,1
10.0,31.6725,0.290775,34.71,1719486.0,1721466961.517304,1
10.0,47.8475,0.289494,34.71,1726798.0,1721466961.760783,1
10.0,3.525,0.288213,34.71,1735818.0,1721466962.004261,1
10.0,-22.265,0.303584,34.71,1729030.0,1721466962.308609,1
10.0,33.81,0.289494,34.71,1743402.0,1721466962.552087,1
10.0,-22.84,0.292055,34.71,1757723.0,1721466962.795565,1
10.0,-69.7075,0.288213,34.71,1745253.0,1721466963.039043,1
10.0,44.18,0.286932,34.68,1743518.5,1721466963.282521,1
10.0,25.9025,0.288213,34.68,1748770.5,1721466963.526,1
10.0,-30.805,0.292055,34.68,1738201.5,1721466963.769478,1
10.0,89.85,0.290775,34.68,1735172.0,1721466964.012957,1
10.0,-19.7075,0.290775,34.68,1738568.0,1721466964.256435,1
10.0,-42.2125,0.289494,34.68,1730411.0,1721466964.560783,1
10.0,-7.075,0.295898,34.68,1727518.5,1721466964.804261,1
10.0,47.9375,0.304865,34.68,1731750.0,1721466965.047739,1
10.0,13.105,0.303584,34.68,1739628.5,1721466965.291217,1
10.0,-57.425,0.299741,34.68,1725760.5,1721466965.534696,1
10.0,46.24,0.299741,34.68,1724453.5,1721466965.778174,1
10.0,22.3125,0.301022,34.68,1730367.0,1721466966.021652,1
10.0,-42.24,0.303584,34.71,1728354.0,1721466966.26513,1
10.0,33.325,0.302303,34.71,1728142.0,1721466966.508609,1
10.0,28.9275,0.29846,34.71,1741908.0,1721466966.752087,1
10.0,-39.0125,0.301022,34.71,1757520.0,1721466967.056435,1
10.0,32.775,0.302303,34.68,1747932.0,1721466967.299913,1
10.0,31.04,0.303584,34.68,1754816.0,1721466967.543391,1
10.0,-16.4,0.302303,34.68,1763329.0,1721466967.78687,1
10.0,16.303333,0.303584,34.68,1748688.5,1721466968.030348,1
10.0,47.125,0.306146,34.68,1750114.0,1721466968.273826,1
10.0,-52.715,0.31127,34.68,1758761.5,1721466968.517304,1
10.0,-99.4225,0.329203,34.68,1744051.0,1721466968.760783,1
10.0,35.655,0.322798,34.68,1740584.0,1721466969.004261,1
10.0,5.07,0.317674,34.68,1745695.5,1721466969.308609,1
10.0,-66.2675,0.318955,34.68,1729643.0,1721466969.552087,1
10.0,59.613333,0.315113,34.68,1726750.0,1721466969.795565,1
10.0,54.1975,0.315113,34.68,1733726.0,1721466970.039043,1
10.0,-38.0725,0.31127,34.71,1721415.5,1721466970.282521,1
10.0,-80.0225,0.309989,34.71,1716848.0,1721466970.526,1
10.0,49.7975,0.313832,34.71,1723355.0,1721466970.769478,1
10.0,20.2425,0.312551,34.71,1733920.0,1721466971.012957,1
10.0,-38.68,0.309989,34.66,1755043.5,1721466971.256435,1
10.0,43.57,0.307427,34.66,1750818.0,1721466971.560783,1
10.0,27.365,0.309989,34.66,1754079.0,1721466971.804261,1
10.0,-29.555,0.31127,34.66,1753362.0,1721466972.047739,1
10.0,-10.0025,0.308708,34.68,1753088.0,1721466972.291217,1
10.0,32.935,0.307427,34.68,1766178.0,1721466972.534696,1
10.0,-5.685,0.307427,34.68,1782282.0,1721466972.778174,1
10.0,-52.6125,0.309989,34.68,1776142.0,1721466973.021652,1
10.0,38.38,0.31127,34.68,1781203.0,1721466973.26513,1
10.0,35.31,0.31127,34.68,1795353.5,1721466973.508609,1
10.0,-5.0175,0.31127,34.68,1787928.0,1721466973.752087,1
10.0,-71.3275,0.31127,34.68,1762467.0,1721466974.056435,1
10.0,46.2075,0.312551,34.66,1758719.0,1721466974.299913,1
10.0,36.37,0.315113,34.66,1764049.5,1721466974.543391,1
10.0,-96.7525,0.315113,34.66,1747523.0,1721466974.78687,1
10.0,39.006667,0.315113,34.66,1744757.5,1721466975.030348,1
10.0,36.88,0.312551,34.68,1749927.0,1721466975.273826,1
10.0,-13.71,0.316393,34.68,1747919.0,1721466975.517304,1
10.0,-77.185,0.317674,34.68,1736594.0,1721466975.760783,1
10.0,45.9225,0.318955,34.68,1736612.0,1721466976.004261,1
10.0,21.165,0.317674,34.68,1749564.0,1721466976.308609,1
10.0,-25.29,0.316393,34.68,1732232.0,1721466976.552087,1
10.0,65.533333,0.318955,34.68,1730907.0,1721466976.795565,1
10.0,-1.515,0.318955,34.68,1737710.0,1721466977.039043,1
10.0,-67.3225,0.317674,34.66,1744250.0,1721466977.282521,1
10.0,-98.5875,0.313832,34.66,1732060.0,1721466977.526,1
10.0,49.2825,0.315113,34.66,1734085.0,1721466977.769478,1
10.0,35.0325,0.316393,34.66,1744405.5,1721466978.012957,1
10.0,-34.345,0.315113,34.66,1733630.5,1721466978.256435,1
10.0,50.3875,0.316393,34.66,1731741.0,1721466978.560783,1
10.0,66.3825,0.313832,34.66,1739007.0,1721466978.804261,1
10.0,-21.2775,0.313832,34.66,1745192.0,1721466979.047739,1
10.0,-97.9975,0.316393,34.66,1731571.5,1721466979.291217,1
10.0,21.6725,0.315113,34.66,1736554.0,1721466979.534696,1
10.0,16.7475,0.313832,34.66,1745723.0,1721466979.778174,1
10.0,-35.9125,0.31127,34.66,1736609.0,1721466980.021652,1
10.0,-0.796667,0.316393,34.65,1735304.0,1721466980.26513,1
10.0,49.8275,0.315113,34.65,1742671.0,1721466980.508609,1
10.0,37.09,0.313832,34.65,1754356.5,1721466980.752087,1
10.0,-72.54,0.309989,34.65,1739113.0,1721466981.056435,1
10.0,17.095,0.308708,34.66,1741550.0,1721466981.299913,1
10.0,15.23,0.313832,34.66,1751431.0,1721466981.543391,1
10.0,-24.105,0.312551,34.66,1747814.0,1721466981.78687,1
10.0,-47.536667,0.312551,34.66,1741044.0,1721466982.030348,1
10.0,42.1,0.308708,34.65,1744803.0,1721466982.273826,1
10.0,19.5375,0.31127,34.65,1755218.5,1721466982.517304,1
10.0,-27.0,0.31127,34.65,1741540.5,1721466982.760783,1
10.0,60.19,0.31127,34.65,1742534.5,1721466983.004261,1
10.0,-3.7525,0.308708,34.65,1752693.0,1721466983.308609,1
10.0,-15.685,0.307427,34.65,1752774.0,1721466983.552087,1
10.0,-75.41,0.309989,34.65,1745066.0,1721466983.795565,1
10.0,40.1325,0.31127,34.65,1747125.0,1721466984.039043,1
10.0,15.8675,0.308708,34.65,1755982.0,1721466984.282521,1
10.0,-59.845,0.307427,34.65,1743909.0,1721466984.526,1
10.0,65.93,0.309989,34.65,1742916.0,1721466984.769478,1
10.0,29.95,0.309989,34.65,1749402.0,1721466985.012957,1
10.0,-44.9425,0.309989,34.63,1741538.5,1721466985.256435,1
10.0,44.235,0.307427,34.63,1742872.5,1721466985.560783,1
10.0,37.4225,0.306146,34.63,1754847.5,1721466985.804261,1
10.0,-16.3275,0.309989,34.63,1744126.0,1721466986.047739,1
10.0,-79.6925,0.31127,34.65,1727840.0,1721466986.291217,1
10.0,43.2375,0.309989,34.65,1729549.5,1721466986.534696,1
10.0,26.0925,0.307427,34.65,1739455.0,1721466986.778174,1
10.0,-43.3725,0.306146,34.65,1725330.0,1721466987.021652,1
10.0,29.646667,0.307427,34.65,1725214.0,1721466987.26513,1
10.0,35.8525,0.308708,34.65,1734063.5,1721466987.508609,1
10.0,-2.3225,0.307427,34.65,1736938.5,1721466987.752087,1
10.0,-79.9925,0.307427,34.65,1742393.5,1721466988.056435,1
10.0,49.12,0.309989,34.65,1742114.0,1721466988.299913,1
10.0,30.03,0.31127,34.65,1750145.0,1721466988.543391,1
10.0,-35.2975,0.31127,34.65,1731130.0,1721466988.78687,1
10.0,19.283333,0.308708,34.65,1732558.5,1721466989.030348,1
10.0,25.565,0.307427,34.65,1741876.5,1721466989.273826,1
10.0,-15.47,0.308708,34.65,1740146.5,1721466989.517304,1
10.0,-80.4675,0.309989,34.65,1743399.5,1721466989.760783,1
10.0,44.435,0.307427,34.65,1752800.0,1721466990.004261,1
10.0,3.94,0.307427,34.65,1754982.0,1721466990.308609,1
10.0,-76.05,0.309989,34.65,1743972.5,1721466990.552087,1
10.0,54.166667,0.308708,34.65,1748516.0,1721466990.795565,1
10.0,37.615,0.31127,34.65,1759685.5,1721466991.039043,1
10.0,-28.5925,0.307427,34.63,1747731.5,1721466991.282521,1
10.0,-62.9575,0.307427,34.63,1746734.0,1721466991.526,1
10.0,40.235,0.308708,34.63,1756809.0,1721466991.769478,1
10.0,15.6525,0.31127,34.63,1773715.0,1721466992.012957,1
10.0,-54.2225,0.31127,34.65,1756148.0,1721466992.256435,1
10.0,59.8675,0.321517,34.65,1760765.5,1721466992.560783,1
10.0,35.5775,0.307427,34.65,1771558.5,1721466992.804261,1
10.0,-26.35,0.309989,34.65,1762950.0,1721466993.047739,1
10.0,-38.565,0.31127,34.63,1762105.0,1721466993.291217,1
10.0,37.165,0.308708,34.63,1769731.0,1721466993.534696,1
10.0,14.625,0.308708,34.63,1782604.0,1721466993.778174,1
10.0,-55.1525,0.308708,34.63,1806148.0,1721466994.021652,1
10.0,35.053333,0.309989,34.61,1784460.0,1721466994.26513,1
10.0,23.8175,0.31127,34.61,1780007.0,1721466994.508609,1
10.0,-29.8025,0.308708,34.61,1769824.5,1721466994.752087,1
10.0,53.11,0.307427,34.61,1761827.0,1721466995.056435,1
10.0,52.38,0.322798,34.61,1771371.0,1721466995.299913,1
10.0,-29.645,0.309989,34.61,1765075.0,1721466995.543391,1
10.0,-26.76,0.31127,34.61,1755326.5,1721466995.78687,1
10.0,44.83,0.31127,34.61,1758448.5,1721466996.030348,1
10.0,2.5875,0.307427,34.63,1755153.0,1721466996.273826,1
10.0,-89.7825,0.309989,34.63,1732947.0,1721466996.517304,1
10.0,64.71,0.312551,34.63,1730099.0,1721466996.760783,1
10.0,57.04,0.312551,34.63,1737152.0,1721466997.004261,1
10.0,-7.69,0.309989,34.63,1708577.5,1721466997.308609,1
10.0,7.7525,0.308708,34.63,1702822.0,1721466997.552087,1
10.0,-15.69,0.31127,34.63,1708028.0,1721466997.795565,1
10.0,-60.7875,0.312551,34.63,1686446.0,1721466998.039043,1
10.0,-3.24,0.312551,34.61,1680751.0,1721466998.282521,1
10.0,47.0775,0.31127,34.61,1686336.0,1721466998.526,1
10.0,4.7925,0.31127,34.61,1685416.0,1721466998.769478,1
10.0,-43.6575,0.313832,34.61,1664332.0,1721466999.012957,1
10.0,63.5075,0.313832,34.63,1662352.5,1721466999.256435,1
10.0,-47.465,0.31127,34.63,1671226.0,1721466999.560783,1
10.0,-105.715,0.309989,34.63,1643183.0,1721466999.804261,1
10.0,61.805,0.309989,34.63,1639750.0,1721467000.047739,1
10.0,28.1425,0.312551,34.61,1647676.0,1721467000.291217,1
10.0,-55.715,0.315113,34.61,1629387.0,1721467000.534696,1
10.0,69.5675,0.31127,34.61,1626452.5,1721467000.778174,1
10.0,97.0375,0.31127,34.61,1636171.5,1721467001.021652,1
10.0,-79.256667,0.315113,34.61,1633066.5,1721467001.26513,1
10.0,-94.7725,0.315113,34.61,1620049.0,1721467001.508609,1
10.0,59.3025,0.315113,34.61,1626299.0,1721467001.752087,1
10.0,1.39,0.31127,34.61,1634888.0,1721467002.056435,1
10.0,-83.135,0.309989,34.61,1618488.0,1721467002.299913,1
10.0,84.0225,0.31127,34.61,1623927.0,1721467002.543391,1
10.0,19.8225,0.312551,34.61,1638503.0,1721467002.78687,1
10.0,-74.153333,0.31127,34.61,1625071.0,1721467003.030348,1
10.0,-6.795,0.312551,34.63,1630134.5,1721467003.273826,1
10.0,54.95,0.309989,34.63,1644981.5,1721467003.517304,1
10.0,8.4125,0.31127,34.63,1650321.0,1721467003.760783,1
10.0,-84.77,0.315113,34.63,1643606.0,1721467004.004261,1
10.0,66.9675,0.315113,34.59,1656569.5,1721467004.308609,1
10.0,40.0775,0.31127,34.59,1673253.0,1721467004.552087,1
10.0,-137.803333,0.312551,34.59,1662510.5,1721467004.795565,1
10.0,50.2325,0.313832,34.59,1669619.0,1721467005.039043,1
10.0,27.5425,0.313832,34.61,1680914.0,1721467005.282521,1
10.0,-50.7775,0.315113,34.61,1674559.0,1721467005.526,1
10.0,23.175,0.31127,34.61,1678517.0,1721467005.769478,1
10.0,40.16,0.313832,34.61,1691316.0,1721467006.012957,1
10.0,-7.2225,0.313832,34.59,1697362.5,1721467006.256435,1
10.0,19.5525,0.313832,34.59,1690615.0,1721467006.560783,1
10.0,21.3575,0.315113,34.59,1699428.0,1721467006.804261,1
10.0,-35.315,0.312551,34.59,1694357.5,1721467007.047739,1
10.0,29.3075,0.31127,34.61,1690386.5,1721467007.291217,1
10.0,37.7525,0.315113,34.61,1696827.0,1721467007.534696,1
10.0,-34.9775,0.316393,34.61,1695861.0,1721467007.778174,1
10.0,9.5425,0.312551,34.61,1690737.0,1721467008.021652,1
10.0,50.966667,0.312551,34.61,1698140.0,1721467008.26513,1
10.0,-21.335,0.312551,34.61,1699192.5,1721467008.508609,1
10.0,-49.8225,0.316393,34.61,1689783.0,1721467008.752087,1
10.0,51.1025,0.330484,34.61,1727591.0,1721467009.056435,1
10.0,-21.17,0.31127,34.57,1715363.0,1721467009.299913,1
10.0,-76.415,0.312551,34.57,1700854.0,1721467009.543391,1
10.0,46.585,0.315113,34.57,1709897.0,1721467009.78687,1
10.0,14.26,0.316393,34.57,1721861.0,1721467010.030348,1
10.0,-50.9825,0.315113,34.61,1708342.0,1721467010.273826,1
10.0,90.115,0.312551,34.61,1710371.0,1721467010.517304,1
10.0,-35.845,0.312551,34.61,1722215.0,1721467010.760783,1
10.0,-56.98,0.315113,34.61,1700167.0,1721467011.004261,1
10.0,-6.7675,0.316393,34.61,1697680.5,1721467011.308609,1
10.0,50.8175,0.317674,34.61,1708672.0,1721467011.552087,1
10.0,8.006667,0.329203,34.61,1715617.0,1721467011.795565,1
10.0,-69.8675,0.312551,34.61,1705570.0,1721467012.039043,1
10.0,92.335,0.315113,34.59,1713397.5,1721467012.282521,1
10.0,-17.555,0.316393,34.59,1723432.5,1721467012.526,1
10.0,-61.4375,0.316393,34.59,1711370.0,1721467012.769478,1
10.0,29.89,0.315113,34.59,1712544.5,1721467013.012957,1
10.0,46.255,0.313832,34.59,1722580.0,1721467013.256435,1
10.0,-43.2175,0.316393,34.59,1717416.0,1721467013.560783,1
10.0,-11.06,0.316393,34.59,1718388.5,1721467013.804261,1
10.0,55.99,0.316393,34.59,1727681.0,1721467014.047739,1
10.0,1.875,0.315113,34.59,1736049.0,1721467014.291217,1
10.0,-97.4725,0.316393,34.59,1724602.0,1721467014.534696,1
10.0,56.1175,0.318955,34.59,1737585.0,1721467014.778174,1
10.0,19.015,0.317674,34.59,1746473.0,1721467015.021652,1
10.0,-69.226667,0.316393,34.59,1711496.0,1721467015.26513,1
10.0,62.41,0.315113,34.59,1713247.5,1721467015.508609,1
10.0,35.19,0.318955,34.59,1718850.0,1721467015.752087,1
10.0,-41.7925,0.320236,34.59,1701729.0,1721467016.056435,1
10.0,16.2975,0.318955,34.59,1703144.0,1721467016.299913,1
10.0,30.065,0.315113,34.59,1712657.5,1721467016.543391,1
10.0,-57.9575,0.315113,34.59,1693294.0,1721467016.78687,1
10.0,50.943333,0.320236,34.59,1690725.5,1721467017.030348,1
10.0,15.015,0.318955,34.59,1695627.0,1721467017.273826,1
10.0,-68.755,0.316393,34.59,1685598.0,1721467017.517304,1
10.0,74.085,0.316393,34.59,1679878.5,1721467017.760783,1
10.0,28.575,0.318955,34.59,1687246.5,1721467018.004261,1
10.0,-86.5275,0.320236,34.57,1673519.0,1721467018.308609,1
10.0,78.7375,0.321517,34.57,1682933.0,1721467018.552087,1
10.0,43.403333,0.317674,34.57,1695716.0,1721467018.795565,1
10.0,-50.5125,0.317674,34.57,1680829.0,1721467019.039043,1
10.0,-8.6125,0.317674,34.59,1679026.5,1721467019.282521,1
10.0,47.21,0.320236,34.59,1690433.0,1721467019.526,1
10.0,-1.545,0.320236,34.59,1702470.0,1721467019.769478,1
10.0,-88.6425,0.320236,34.59,1690165.0,1721467020.012957,1
10.0,61.8175,0.321517,34.59,1696006.5,1721467020.256435,1
10.0,7.7775,0.324079,34.59,1715431.5,1721467020.560783,1
10.0,-81.0475,0.324079,34.59,1707446.0,1721467020.804261,1
10.0,61.1425,0.324079,34.59,1705461.5,1721467021.047739,1
10.0,42.5575,0.324079,34.59,1720184.0,1721467021.291217,1
10.0,-21.7425,0.32536,34.59,1733767.0,1721467021.534696,1
10.0,6.895,0.32536,34.59,1728396.5,1721467021.778174,1
10.0,12.4125,0.326641,34.59,1737411.0,1721467022.021652,1
10.0,-34.746667,0.324079,34.59,1750931.0,1721467022.26513,1
10.0,-82.1825,0.322798,34.59,1741466.5,1721467022.508609,1
10.0,41.64,0.327922,34.59,1746793.0,1721467022.752087,1
10.0,-31.3525,0.327922,34.59,1759228.0,1721467023.056435,1
10.0,-21.9075,0.324079,34.57,1745507.0,1721467023.299913,1
10.0,58.3775,0.324079,34.57,1746343.0,1721467023.543391,1
10.0,-24.67,0.324079,34.57,1754901.0,1721467023.78687,1
10.0,-36.06,0.326641,34.57,1736565.0,1721467024.030348,1
10.0,47.4325,0.326641,34.57,1737732.0,1721467024.273826,1
10.0,-12.49,0.322798,34.57,1767003.0,1721467024.517304,1
10.0,-119.37,0.322798,34.57,1715112.0,1721467024.760783,1
10.0,79.3725,0.327922,34.57,1695343.5,1721467025.004261,1
10.0,16.435,0.327922,34.57,1695583.0,1721467025.308609,1
10.0,-99.055,0.327922,34.57,1679612.0,1721467025.552087,1
10.0,84.67,0.324079,34.57,1674694.0,1721467025.795565,1
10.0,51.5125,0.32536,34.57,1681948.0,1721467026.039043,1
10.0,-44.3425,0.32536,34.57,1699597.0,1721467026.282521,1
10.0,-88.61,0.326641,34.57,1701571.0,1721467026.526,1
10.0,59.1675,0.326641,34.57,1689776.0,1721467026.769478,1
10.0,11.3675,0.324079,34.57,1690177.0,1721467027.012957,1
10.0,-80.9625,0.322798,34.57,1672265.0,1721467027.256435,1
10.0,102.2975,0.324079,34.57,1672902.0,1721467027.560783,1
10.0,51.27,0.324079,34.57,1684745.0,1721467027.804261,1
10.0,-41.9825,0.324079,34.57,1678514.0,1721467028.047739,1
10.0,-106.9275,0.321517,34.57,1689784.0,1721467028.291217,1
10.0,49.9675,0.321517,34.57,1688174.0,1721467028.534696,1
10.0,25.045,0.324079,34.57,1700475.5,1721467028.778174,1
10.0,-59.49,0.32536,34.57,1692009.5,1721467029.021652,1
10.0,82.06,0.324079,34.57,1693657.0,1721467029.26513,1
10.0,40.5525,0.321517,34.57,1704185.0,1721467029.508609,1
10.0,-39.91,0.320236,34.57,1706345.0,1721467029.752087,1
10.0,-16.72,0.322798,34.57,1720456.5,1721467030.056435,1
10.0,38.7525,0.32536,34.57,1729250.0,1721467030.299913,1
10.0,-9.2475,0.324079,34.57,1741318.5,1721467030.543391,1
10.0,-98.905,0.322798,34.57,1735765.0,1721467030.78687,1
10.0,63.946667,0.320236,34.57,1746177.0,1721467031.030348,1
10.0,-1.41,0.324079,34.55,1761711.0,1721467031.273826,1
10.0,-91.8225,0.321517,34.55,1754993.0,1721467031.517304,1
10.0,49.835,0.320236,34.55,1758523.0,1721467031.760783,1
10.0,-1.35,0.318955,34.55,1772267.0,1721467032.004261,1
10.0,-73.6525,0.321517,34.55,1771682.5,1721467032.308609,1
10.0,47.06,0.324079,34.55,1756059.0,1721467032.552087,1
10.0,-14.21,0.322798,34.55,1764261.0,1721467032.795565,1
10.0,-9.51,0.318955,34.55,1751293.0,1721467033.039043,1
10.0,36.465,0.318955,34.57,1748686.0,1721467033.282521,1
10.0,-33.4425,0.320236,34.57,1755830.0,1721467033.526,1
10.0,-84.5075,0.321517,34.57,1734028.5,1721467033.769478,1
10.0,53.3875,0.320236,34.57,1727364.5,1721467034.012957,1
10.0,8.3725,0.317674,34.53,1731866.0,1721467034.256435,1
10.0,-78.2325,0.318955,34.53,1707370.0,1721467034.560783,1
10.0,77.9825,0.318955,34.53,1706446.0,1721467034.804261,1
10.0,25.9225,0.321517,34.53,1716276.0,1721467035.047739,1
10.0,-155.865,0.320236,34.53,1695423.0,1721467035.291217,1
10.0,49.07,0.317674,34.53,1692598.5,1721467035.534696,1
10.0,36.1725,0.317674,34.53,1706681.0,1721467035.778174,1
10.0,-63.4025,0.320236,34.53,1688250.0,1721467036.021652,1
10.0,49.97,0.320236,34.53,1679492.0,1721467036.26513,1
10.0,62.785,0.320236,34.53,1682755.0,1721467036.508609,1
10.0,16.3925,0.317674,34.53,1691823.0,1721467036.752087,1
10.0,3.985,0.318955,34.53,1672951.0,1721467037.056435,1
10.0,2.47,0.320236,34.55,1679651.0,1721467037.299913,1
10.0,-20.9725,0.321517,34.55,1690995.0,1721467037.543391,1
10.0,-107.105,0.322798,34.55,1672977.0,1721467037.78687,1
10.0,74.813333,0.318955,34.55,1676866.0,1721467038.030348,1
10.0,30.3725,0.317674,34.55,1689311.0,1721467038.273826,1
10.0,-67.02,0.320236,34.55,1686366.0,1721467038.517304,1
10.0,94.4275,0.322798,34.55,1686219.5,1721467038.760783,1
10.0,11.3775,0.322798,34.55,1695732.5,1721467039.004261,1
10.0,-74.235,0.318955,34.53,1692917.0,1721467039.308609,1
10.0,51.48,0.318955,34.53,1694666.0,1721467039.552087,1
10.0,36.18,0.321517,34.53,1705657.5,1721467039.795565,1
10.0,-42.45,0.321517,34.53,1715326.0,1721467040.039043,1
10.0,44.0925,0.321517,34.53,1702411.0,1721467040.282521,1
10.0,54.7625,0.321517,34.53,1708177.0,1721467040.526,1
10.0,-85.475,0.318955,34.53,1719629.5,1721467040.769478,1
10.0,49.24,0.322798,34.53,1705019.0,1721467041.012957,1
10.0,23.1575,0.322798,34.53,1708772.0,1721467041.256435,1
10.0,-115.575,0.320236,34.53,1706833.0,1721467041.560783,1
10.0,82.15,0.320236,34.53,1704429.0,1721467041.804261,1
10.0,16.215,0.336889,34.53,1713342.5,1721467042.047739,1
10.0,-100.02,0.322798,34.53,1708092.5,1721467042.291217,1
10.0,75.1925,0.324079,34.53,1704070.0,1721467042.534696,1
10.0,26.7125,0.321517,34.53,1713672.0,1721467042.778174,1
10.0,-86.705,0.321517,34.53,1705719.5,1721467043.021652,1
10.0,77.73,0.32536,34.5,1700237.0,1721467043.26513,1
10.0,21.205,0.326641,34.5,1710890.5,1721467043.508609,1
10.0,-86.4025,0.326641,34.5,1707353.5,1721467043.752087,1
10.0,111.7725,0.322798,34.5,1706457.5,1721467044.056435,1
10.0,-22.685,0.32536,34.5,1716276.0,1721467044.299913,1
10.0,-161.155,0.32536,34.5,1707687.0,1721467044.543391,1
10.0,106.2575,0.326641,34.5,1710570.5,1721467044.78687,1
10.0,12.576667,0.326641,34.5,1721672.0,1721467045.030348,1
10.0,-145.7325,0.324079,34.5,1711684.5,1721467045.273826,1
10.0,57.74,0.322798,34.5,1713672.0,1721467045.517304,1
10.0,25.2775,0.32536,34.5,1723721.0,1721467045.760783,1
10.0,-64.705,0.326641,34.5,1714392.5,1721467046.004261,1
10.0,81.4125,0.32536,34.53,1717435.0,1721467046.308609,1
10.0,36.1075,0.324079,34.53,1730455.5,1721467046.552087,1
10.0,-74.793333,0.324079,34.53,1721431.5,1721467046.795565,1
10.0,32.9125,0.326641,34.53,1726717.0,1721467047.039043,1
10.0,-2.07,0.329203,34.5,1739229.5,1721467047.282521,1
10.0,-96.03,0.329203,34.5,1727879.0,1721467047.526,1
10.0,65.74,0.326641,34.5,1731349.5,1721467047.769478,1
10.0,3.84,0.326641,34.5,1741088.0,1721467048.012957,1
10.0,-56.285,0.327922,34.5,1728672.0,1721467048.256435,1
10.0,47.67,0.330484,34.5,1736643.0,1721467048.560783,1
10.0,-36.685,0.327922,34.5,1736807.5,1721467048.804261,1
10.0,47.36,0.326641,34.5,1733277.5,1721467049.047739,1
10.0,27.9825,0.329203,34.53,1750923.0,1721467049.291217,1
10.0,-53.7575,0.330484,34.53,1772459.0,1721467049.534696,1
10.0,-0.26,0.330484,34.53,1757478.0,1721467049.778174,1
10.0,32.035,0.327922,34.53,1762192.0,1721467050.021652,1
10.0,-37.693333,0.326641,34.5,1759298.0,1721467050.26513,1
10.0,42.865,0.329203,34.5,1748931.0,1721467050.508609,1
10.0,29.3675,0.329203,34.5,1752388.0,1721467050.752087,1
10.0,-92.07,0.330484,34.5,1741455.0,1721467051.056435,1
10.0,63.585,0.327922,34.53,1761398.0,1721467051.299913,1
10.0,-3.8875,0.330484,34.53,1769729.0,1721467051.543391,1
10.0,-91.595,0.333046,34.53,1744242.0,1721467051.78687,1
10.0,65.866667,0.335608,34.53,1740405.0,1721467052.030348,1
10.0,-0.1375,0.334327,34.49,1749904.0,1721467052.273826,1
10.0,-1.865,0.330484,34.49,1727981.5,1721467052.517304,1
10.0,58.36,0.330484,34.49,1730233.5,1721467052.760783,1
10.0,-45.6375,0.333046,34.49,1730187.0,1721467053.004261,1
10.0,21.285,0.335608,34.5,1711788.0,1721467053.308609,1
10.0,34.8325,0.333046,34.5,1713401.0,1721467053.552087,1
10.0,-43.086667,0.331765,34.5,1707816.0,1721467053.795565,1
10.0,10.6225,0.331765,34.5,1702583.0,1721467054.039043,1
10.0,51.6525,0.334327,34.5,1711233.5,1721467054.282521,1
10.0,-22.9075,0.333046,34.5,1711480.0,1721467054.526,1
10.0,-68.4775,0.334327,34.5,1708116.5,1721467054.769478,1
10.0,63.9075,0.331765,34.5,1730256.0,1721467055.012957,1
10.0,15.9825,0.330484,34.49,1743372.0,1721467055.256435,1
10.0,-108.62,0.333046,34.49,1722664.0,1721467055.560783,1
10.0,63.4175,0.335608,34.49,1721237.0,1721467055.804261,1
10.0,18.3675,0.335608,34.49,1726105.0,1721467056.047739,1
10.0,-69.9525,0.331765,34.5,1712977.5,1721467056.291217,1
10.0,82.4275,0.331765,34.5,1712316.0,1721467056.534696,1
10.0,34.63,0.336889,34.5,1716668.5,1721467056.778174,1
10.0,-43.1225,0.336889,34.5,1726028.5,1721467057.021652,1
10.0,-47.526667,0.33817,34.49,1736687.5,1721467057.26513,1
10.0,51.4725,0.335608,34.49,1744976.0,1721467057.508609,1
10.0,0.425,0.336889,34.49,1759142.0,1721467057.752087,1
10.0,-36.9225,0.335608,34.49,1753042.0,1721467058.056435,1
10.0,34.5475,0.336889,34.49,1759170.0,1721467058.299913,1
10.0,-0.145,0.336889,34.49,1770810.5,1721467058.543391,1
10.0,-72.0775,0.333046,34.49,1763249.0,1721467058.78687,1
10.0,45.15,0.334327,34.49,1769265.0,1721467059.030348,1
10.0,-6.7425,0.335608,34.49,1782799.0,1721467059.273826,1
10.0,-87.115,0.335608,34.49,1770485.0,1721467059.517304,1
10.0,86.0175,0.336889,34.49,1777081.0,1721467059.760783,1
10.0,30.4975,0.333046,34.49,1792238.0,1721467060.004261,1
10.0,-54.19,0.333046,34.47,1810393.0,1721467060.308609,1
10.0,54.07,0.335608,34.47,1818786.0,1721467060.552087,1
10.0,23.123333,0.33817,34.47,1813431.0,1721467060.795565,1
10.0,-43.6225,0.348417,34.47,1816857.5,1721467061.039043,1
10.0,51.05,0.359946,34.47,1797665.5,1721467061.282521,1
10.0,19.92,0.345855,34.47,1795218.5,1721467061.526,1
10.0,-46.39,0.348417,34.47,1793867.0,1721467061.769478,1
10.0,60.8575,0.350979,34.47,1771178.0,1721467062.012957,1
10.0,28.53,0.350979,34.5,1770317.0,1721467062.256435,1
10.0,-72.165,0.349698,34.5,1785169.0,1721467062.560783,1
10.0,77.565,0.350979,34.5,1783081.0,1721467062.804261,1
10.0,33.7325,0.357384,34.5,1780937.0,1721467063.047739,1
10.0,-43.0225,0.361227,34.49,1771436.0,1721467063.291217,1
10.0,32.5775,0.36635,34.49,1760271.0,1721467063.534696,1
10.0,36.7975,0.367631,34.49,1761289.5,1721467063.778174,1
10.0,-21.5225,0.36635,34.49,1767091.0,1721467064.021652,1
10.0,-59.973333,0.368912,34.47,1747791.5,1721467064.26513,1
10.0,44.7325,0.371474,34.47,1761696.0,1721467064.508609,1
10.0,-0.215,0.372755,34.47,1777401.0,1721467064.752087,1
10.0,-73.305,0.372755,34.47,1752842.0,1721467065.056435,1
10.0,52.285,0.370193,34.47,1752919.0,1721467065.299913,1
10.0,14.0325,0.370193,34.47,1761478.0,1721467065.543391,1
10.0,-94.05,0.371474,34.47,1749430.0,1721467065.78687,1
10.0,55.813333,0.375317,34.47,1752127.0,1721467066.030348,1
10.0,17.9175,0.377879,34.49,1763608.5,1721467066.273826,1
10.0,-54.6375,0.374036,34.49,1787385.0,1721467066.517304,1
10.0,61.82,0.386845,34.49,1794381.0,1721467066.760783,1
10.0,19.9725,0.371474,34.49,1787620.0,1721467067.004261,1
10.0,-65.815,0.371474,34.47,1772532.0,1721467067.308609,1
10.0,105.64,0.370193,34.47,1759602.5,1721467067.552087,1
10.0,12.016667,0.367631,34.47,1759385.5,1721467067.795565,1
10.0,-82.45,0.36635,34.47,1750762.5,1721467068.039043,1
10.0,56.735,0.367631,34.47,1734646.0,1721467068.282521,1
10.0,33.345,0.370193,34.47,1733461.0,1721467068.526,1
10.0,-37.565,0.368912,34.47,1728335.5,1721467068.769478,1
10.0,20.3625,0.365069,34.47,1726248.0,1721467069.012957,1
10.0,24.9775,0.36635,34.47,1735590.0,1721467069.256435,1
10.0,-48.975,0.36635,34.47,1727938.0,1721467069.560783,1
10.0,64.7825,0.371474,34.47,1721499.0,1721467069.804261,1
10.0,24.2825,0.368912,34.47,1732685.5,1721467070.047739,1
10.0,-55.2625,0.365069,34.47,1707597.5,1721467070.291217,1
10.0,38.6125,0.363788,34.47,1702752.0,1721467070.534696,1
10.0,50.4225,0.367631,34.47,1711943.0,1721467070.778174,1
10.0,-19.045,0.367631,34.47,1711410.0,1721467071.021652,1
10.0,-21.806667,0.365069,34.47,1705996.0,1721467071.26513,1
10.0,73.0475,0.363788,34.47,1710426.0,1721467071.508609,1
10.0,-67.5725,0.365069,34.47,1708902.0,1721467071.752087,1
10.0,-83.62,0.367631,34.47,1694917.5,1721467072.056435,1
10.0,51.405,0.367631,34.47,1700518.5,1721467072.299913,1
10.0,7.5475,0.365069,34.47,1704331.5,1721467072.543391,1
10.0,-117.6175,0.36635,34.47,1693699.0,1721467072.78687,1
10.0,95.55,0.365069,34.47,1701877.0,1721467073.030348,1
10.0,67.115,0.36635,34.47,1714369.0,1721467073.273826,1
10.0,-53.5175,0.367631,34.47,1701530.0,1721467073.517304,1
10.0,10.35,0.365069,34.47,1705984.0,1721467073.760783,1
10.0,2.04,0.368912,34.47,1717421.5,1721467074.004261,1
10.0,-87.4875,0.372755,34.47,1705894.0,1721467074.308609,1
10.0,74.205,0.375317,34.47,1709112.0,1721467074.552087,1
10.0,14.596667,0.377879,34.47,1718807.0,1721467074.795565,1
10.0,-90.1075,0.377879,34.47,1708342.0,1721467075.039043,1
10.0,126.9025,0.376598,34.47,1713891.0,1721467075.282521,1
10.0,-27.24,0.377879,34.47,1726893.0,1721467075.526,1
10.0,-130.3525,0.380441,34.47,1712142.0,1721467075.769478,1
10.0,89.2775,0.37916,34.47,1714010.0,1721467076.012957,1
10.0,25.525,0.37916,34.47,1724330.5,1721467076.256435,1
10.0,-118.0275,0.376598,34.47,1706732.0,1721467076.560783,1
10.0,87.2275,0.380441,34.47,1712419.0,1721467076.804261,1
10.0,58.795,0.383003,34.47,1723990.5,1721467077.047739,1
10.0,-134.5475,0.383003,34.45,1704462.0,1721467077.291217,1
10.0,63.2375,0.380441,34.45,1706640.5,1721467077.534696,1
10.0,26.2425,0.380441,34.45,1716615.0,1721467077.778174,1
10.0,-67.165,0.381722,34.45,1701398.5,1721467078.021652,1
10.0,70.15,0.385565,34.45,1704270.0,1721467078.26513,1
10.0,36.9525,0.385565,34.45,1716350.0,1721467078.508609,1
10.0,-54.3375,0.380441,34.45,1709793.0,1721467078.752087,1
10.0,93.1275,0.380441,34.45,1710437.0,1721467079.056435,1
10.0,18.3075,0.384284,34.45,1722379.5,1721467079.299913,1
10.0,-103.0975,0.384284,34.45,1715059.0,1721467079.543391,1
10.0,73.235,0.384284,34.45,1715156.0,1721467079.78687,1
10.0,-1.53,0.380441,34.45,1719403.5,1721467080.030348,1
10.0,-57.9375,0.380441,34.45,1700437.5,1721467080.273826,1
10.0,37.8775,0.383003,34.45,1698898.5,1721467080.517304,1
10.0,-24.865,0.385565,34.45,1705455.0,1721467080.760783,1
10.0,55.9225,0.384284,34.45,1689404.0,1721467081.004261,1
10.0,26.9175,0.380441,34.47,1704213.0,1721467081.308609,1
10.0,-82.69,0.380441,34.47,1720699.5,1721467081.552087,1
10.0,75.466667,0.381722,34.47,1723869.5,1721467081.795565,1
10.0,40.2975,0.383003,34.47,1719199.0,1721467082.039043,1
10.0,-60.025,0.384284,34.45,1702741.0,1721467082.282521,1
10.0,61.445,0.380441,34.45,1696572.5,1721467082.526,1
10.0,84.1475,0.380441,34.45,1702539.0,1721467082.769478,1
10.0,-1.1925,0.383003,34.45,1693230.5,1721467083.012957,1
10.0,-142.135,0.385565,34.43,1688140.0,1721467083.256435,1
10.0,40.135,0.383003,34.43,1691429.0,1721467083.560783,1
10.0,-16.4725,0.380441,34.43,1686124.0,1721467083.804261,1
10.0,-150.6825,0.381722,34.43,1672115.5,1721467084.047739,1
10.0,99.285,0.385565,34.45,1675965.5,1721467084.291217,1
10.0,46.26,0.384284,34.45,1686458.5,1721467084.534696,1
10.0,-48.425,0.385565,34.45,1667033.0,1721467084.778174,1
10.0,79.4125,0.383003,34.45,1665074.5,1721467085.021652,1
10.0,32.943333,0.381722,34.47,1670816.0,1721467085.26513,1
10.0,-55.38,0.383003,34.47,1677911.0,1721467085.508609,1
10.0,-6.7725,0.384284,34.47,1705882.0,1721467085.752087,1
10.0,34.76,0.386845,34.47,1713689.0,1721467086.056435,1
10.0,-59.95,0.384284,34.43,1722891.5,1721467086.299913,1
10.0,3.8,0.385565,34.43,1716541.0,1721467086.543391,1
10.0,60.415,0.390688,34.43,1725335.0,1721467086.78687,1
10.0,7.873333,0.39325,34.43,1737406.0,1721467087.030348,1
10.0,-44.6075,0.394531,34.43,1726957.0,1721467087.273826,1
10.0,-14.66,0.39325,34.43,1734771.0,1721467087.517304,1
10.0,-32.0175,0.394531,34.43,1749517.0,1721467087.760783,1
10.0,-78.9875,0.399655,34.43,1738358.0,1721467088.004261,1
10.0,49.8575,0.399655,34.45,1748858.5,1721467088.308609,1
10.0,-38.2675,0.399655,34.45,1760612.0,1721467088.552087,1
10.0,-29.436667,0.397093,34.45,1749184.0,1721467088.795565,1
10.0,68.295,0.397093,34.45,1757915.0,1721467089.039043,1
10.0,-13.6175,0.399655,34.45,1770025.5,1721467089.282521,1
10.0,-111.08,0.402217,34.45,1763751.5,1721467089.526,1
10.0,61.6825,0.399655,34.45,1779549.0,1721467089.769478,1
10.0,11.495,0.399655,34.45,1782079.0,1721467090.012957,1
10.0,-128.08,0.404779,34.43,1762305.0,1721467090.256435,1
10.0,85.6625,0.404779,34.43,1765786.0,1721467090.560783,1
10.0,65.3125,0.404779,34.43,1775160.5,1721467090.804261,1
10.0,-135.5,0.400936,34.43,1760982.5,1721467091.047739,1
10.0,15.8675,0.400936,34.43,1762129.0,1721467091.291217,1
10.0,2.0025,0.402217,34.43,1762505.0,1721467091.534696,1
10.0,-96.3725,0.404779,34.43,1737359.0,1721467091.778174,1
10.0,94.0675,0.40606,34.43,1738948.0,1721467092.021652,1
10.0,42.676667,0.402217,34.43,1746958.0,1721467092.26513,1
10.0,-74.855,0.402217,34.43,1737995.0,1721467092.508609,1
10.0,150.545,0.404779,34.43,1734621.0,1721467092.752087,1
10.0,-94.7325,0.40606,34.43,1742969.0,1721467093.056435,1
10.0,-75.82,0.407341,34.45,1728554.0,1721467093.299913,1
10.0,28.6575,0.403498,34.45,1727091.0,1721467093.543391,1
10.0,-67.1175,0.40606,34.45,1727283.0,1721467093.78687,1
10.0,86.6,0.40606,34.45,1703543.5,1721467094.030348,1
10.0,5.6325,0.408622,34.43,1704820.0,1721467094.273826,1
10.0,-74.1625,0.409902,34.43,1685020.5,1721467094.517304,1
10.0,87.39,0.40606,34.43,1678862.5,1721467094.760783,1
10.0,-6.745,0.40606,34.43,1684383.0,1721467095.004261,1
10.0,-28.1875,0.407341,34.43,1659611.5,1721467095.308609,1
10.0,67.6875,0.409902,34.43,1659732.5,1721467095.552087,1
10.0,-8.026667,0.408622,34.43,1652801.0,1721467095.795565,1
10.0,-145.935,0.40606,34.43,1630565.5,1721467096.039043,1
10.0,81.6275,0.404779,34.45,1637727.5,1721467096.282521,1
10.0,50.3225,0.407341,34.45,1650830.5,1721467096.526,1
10.0,-74.12,0.412464,34.45,1627773.0,1721467096.769478,1
10.0,49.3325,0.408622,34.45,1632242.0,1721467097.012957,1
10.0,58.0825,0.404779,34.43,1648201.0,1721467097.256435,1
10.0,-58.4075,0.404779,34.43,1670557.5,1721467097.560783,1
10.0,17.1175,0.407341,34.43,1661206.5,1721467097.804261,1
10.0,25.0225,0.408622,34.43,1664086.5,1721467098.047739,1
10.0,-43.03,0.40606,34.43,1663409.0,1721467098.291217,1
10.0,-1.45,0.40606,34.43,1656793.0,1721467098.534696,1
10.0,48.5675,0.408622,34.43,1664196.0,1721467098.778174,1
10.0,-34.9,0.408622,34.43,1669695.0,1721467099.021652,1
10.0,-24.12,0.411183,34.43,1673083.0,1721467099.26513,1
10.0,49.04,0.407341,34.43,1698849.0,1721467099.508609,1
10.0,-25.2075,0.408622,34.43,1698067.0,1721467099.752087,1
10.0,68.13,0.411183,34.43,1675642.0,1721467100.056435,1
10.0,38.0325,0.413745,34.43,1680800.0,1721467100.299913,1
10.0,-7.745,0.413745,34.43,1674178.0,1721467100.543391,1
10.0,66.545,0.412464,34.43,1672527.0,1721467100.78687,1
10.0,-74.496667,0.409902,34.43,1680196.0,1721467101.030348,1
10.0,-135.8825,0.415026,34.43,1671441.5,1721467101.273826,1
10.0,100.3575,0.413745,34.43,1661672.5,1721467101.517304,1
10.0,27.5825,0.413745,34.43,1668105.5,1721467101.760783,1
10.0,-125.5125,0.409902,34.43,1658885.0,1721467102.004261,1
10.0,56.835,0.411183,34.41,1668471.5,1721467102.308609,1
10.0,-14.6675,0.409902,34.41,1687476.5,1721467102.552087,1
10.0,-6.37,0.412464,34.41,1679528.0,1721467102.795565,1
10.0,59.4825,0.412464,34.41,1690503.0,1721467103.039043,1
10.0,-21.95,0.408622,34.41,1714108.0,1721467103.282521,1
10.0,-116.55,0.407341,34.41,1708542.0,1721467103.526,1
10.0,70.4475,0.409902,34.41,1706400.0,1721467103.769478,1
10.0,-5.095,0.411183,34.41,1715525.0,1721467104.012957,1
10.0,-125.13,0.409902,34.41,1707152.0,1721467104.256435,1
10.0,52.24,0.407341,34.41,1712844.0,1721467104.560783,1
10.0,-34.22,0.40606,34.41,1725270.5,1721467104.804261,1
10.0,34.905,0.408622,34.41,1728306.0,1721467105.047739,1
10.0,27.1975,0.409902,34.41,1754983.0,1721467105.291217,1
10.0,-74.1925,0.40606,34.41,1761214.0,1721467105.534696,1
10.0,89.01,0.40606,34.41,1754098.0,1721467105.778174,1
10.0,9.0425,0.408622,34.41,1761599.0,1721467106.021652,1
10.0,-130.406667,0.409902,34.41,1766667.0,1721467106.26513,1
10.0,80.0275,0.408622,34.41,1765776.5,1721467106.508609,1
10.0,17.5,0.404779,34.41,1774677.5,1721467106.752087,1
10.0,-114.2325,0.403498,34.41,1769566.0,1721467107.056435,1
10.0,68.0775,0.40606,34.41,1761334.0,1721467107.299913,1
10.0,14.71,0.407341,34.41,1770636.0,1721467107.543391,1
10.0,-124.2025,0.40606,34.41,1757149.0,1721467107.78687,1
10.0,80.933333,0.403498,34.41,1759553.0,1721467108.030348,1
10.0,14.7025,0.402217,34.39,1769224.0,1721467108.273826,1
10.0,-113.215,0.402217,34.39,1759001.0,1721467108.517304,1
10.0,94.255,0.407341,34.39,1762031.0,1721467108.760783,1
10.0,30.2925,0.40606,34.39,1762669.5,1721467109.004261,1
10.0,-128.84,0.403498,34.43,1747961.0,1721467109.308609,1
10.0,81.4975,0.403498,34.43,1752945.0,1721467109.552087,1
10.0,13.59,0.40606,34.43,1763925.0,1721467109.795565,1
10.0,-121.2575,0.407341,34.43,1760324.0,1721467110.039043,1
10.0,68.3875,0.407341,34.41,1759781.0,1721467110.282521,1
10.0,-8.805,0.407341,34.41,1765879.0,1721467110.526,1
10.0,-29.5025,0.403498,34.41,1761574.5,1721467110.769478,1
10.0,25.545,0.402217,34.41,1757572.5,1721467111.012957,1
10.0,-51.2475,0.404779,34.41,1769535.0,1721467111.256435,1
10.0,75.7925,0.411183,34.41,1752634.0,1721467111.560783,1
10.0,-3.3975,0.408622,34.41,1756017.0,1721467111.804261,1
10.0,-117.2575,0.408622,34.41,1744462.5,1721467112.047739,1
10.0,87.215,0.409902,34.39,1741176.0,1721467112.291217,1
10.0,22.9975,0.411183,34.39,1754912.0,1721467112.534696,1
10.0,-107.9425,0.416307,34.39,1731449.0,1721467112.778174,1
10.0,104.18,0.417588,34.39,1725856.0,1721467113.021652,1
10.0,66.123333,0.415026,34.39,1730386.0,1721467113.26513,1
10.0,1.8775,0.413745,34.39,1724327.0,1721467113.508609,1
10.0,-34.61,0.416307,34.39,1711983.5,1721467113.752087,1
10.0,-60.295,0.417588,34.39,1718848.0,1721467114.056435,1
10.0,-45.515,0.418869,34.39,1728589.0,1721467114.299913,1
10.0,-115.0925,0.416307,34.39,1707746.5,1721467114.543391,1
10.0,70.2625,0.416307,34.39,1709934.0,1721467114.78687,1
10.0,14.056667,0.418869,34.39,1719996.5,1721467115.030348,1
10.0,-130.6675,0.418869,34.41,1705582.0,1721467115.273826,1
10.0,93.1175,0.418869,34.41,1709828.0,1721467115.517304,1
10.0,23.9325,0.416307,34.41,1719802.0,1721467115.760783,1
10.0,-112.34,0.416307,34.41,1711186.0,1721467116.004261,1
10.0,71.475,0.418869,34.39,1736796.5,1721467116.308609,1
10.0,1.2275,0.42015,34.39,1745602.0,1721467116.552087,1
10.0,-100.023333,0.423993,34.39,1734111.0,1721467116.795565,1
10.0,55.685,0.427836,34.39,1734780.0,1721467117.039043,1
10.0,8.5975,0.427836,34.39,1748289.0,1721467117.282521,1
10.0,47.0,0.431679,34.39,1749147.5,1721467117.526,1
10.0,-32.885,0.432959,34.39,1761806.5,1721467117.769478,1
10.0,-108.9575,0.432959,34.39,1772983.0,1721467118.012957,1
10.0,10.195,0.430398,34.41,1753431.0,1721467118.256435,1
10.0,47.125,0.423993,34.41,1759465.0,1721467118.560783,1
10.0,-74.2325,0.425274,34.41,1760414.5,1721467118.804261,1
10.0,82.325,0.426555,34.41,1753137.0,1721467119.047739,1
10.0,16.3275,0.425274,34.39,1758064.0,1721467119.291217,1
10.0,-107.8825,0.421431,34.39,1753091.0,1721467119.534696,1
10.0,88.09,0.422712,34.39,1747193.0,1721467119.778174,1
10.0,24.8275,0.422712,34.39,1748458.0,1721467120.021652,1
10.0,-118.866667,0.423993,34.39,1728570.0,1721467120.26513,1
10.0,96.0975,0.421431,34.39,1717722.0,1721467120.508609,1
10.0,42.03,0.422712,34.39,1714686.5,1721467120.752087,1
10.0,-121.13,0.422712,34.39,1695717.0,1721467121.056435,1
10.0,88.18,0.423993,34.39,1693182.0,1721467121.299913,1
10.0,33.0275,0.430398,34.39,1699396.0,1721467121.543391,1
10.0,-103.045,0.430398,34.39,1685255.0,1721467121.78687,1
10.0,84.503333,0.426555,34.39,1683418.0,1721467122.030348,1
10.0,16.7,0.426555,34.39,1698474.5,1721467122.273826,1
10.0,-91.65,0.426555,34.39,1685092.0,1721467122.517304,1
10.0,56.85,0.429117,34.39,1681321.0,1721467122.760783,1
10.0,-22.3575,0.427836,34.39,1690542.0,1721467123.004261,1
10.0,12.8075,0.423993,34.37,1678045.0,1721467123.308609,1
10.0,54.6875,0.423993,34.37,1687297.0,1721467123.552087,1
10.0,-2.026667,0.423993,34.37,1700888.0,1721467123.795565,1
10.0,-132.45,0.429117,34.37,1689676.0,1721467124.039043,1
10.0,75.8275,0.427836,34.39,1690271.0,1721467124.282521,1
10.0,33.245,0.426555,34.39,1702976.0,1721467124.526,1
10.0,-70.0125,0.425274,34.39,1692288.0,1721467124.769478,1
10.0,85.3525,0.431679,34.39,1692393.0,1721467125.012957,1
10.0,27.915,0.430398,34.39,1701970.0,1721467125.256435,1
10.0,-73.6875,0.431679,34.39,1698134.0,1721467125.560783,1
10.0,77.3725,0.427836,34.39,1716332.5,1721467125.804261,1
10.0,48.9525,0.427836,34.39,1739481.0,1721467126.047739,1
10.0,-28.03,0.429117,34.39,1758939.0,1721467126.291217,1
10.0,-45.7575,0.430398,34.39,1737862.0,1721467126.534696,1
10.0,47.955,0.432959,34.39,1738928.0,1721467126.778174,1
10.0,-16.9125,0.430398,34.39,1743572.0,1721467127.021652,1
10.0,-99.57,0.430398,34.37,1723396.0,1721467127.26513,1
10.0,100.6425,0.430398,34.37,1717965.0,1721467127.508609,1
10.0,-24.69,0.432959,34.37,1722044.5,1721467127.752087,1
10.0,-17.1575,0.435521,34.37,1706570.0,1721467128.056435,1
10.0,42.0025,0.435521,34.37,1701358.0,1721467128.299913,1
10.0,-41.165,0.432959,34.37,1707708.0,1721467128.543391,1
10.0,3.705,0.432959,34.37,1682929.0,1721467128.78687,1
10.0,40.1,0.438083,34.37,1681520.5,1721467129.030348,1
10.0,-31.975,0.438083,34.37,1688706.5,1721467129.273826,1
10.0,56.2475,0.438083,34.37,1662297.0,1721467129.517304,1
10.0,48.87,0.43424,34.37,1663781.0,1721467129.760783,1
10.0,-46.8975,0.438083,34.37,1672501.0,1721467130.004261,1
10.0,80.01,0.43424,34.39,1676512.0,1721467130.308609,1
10.0,46.3325,0.439364,34.39,1698159.5,1721467130.552087,1
10.0,-59.366667,0.440645,34.39,1695101.0,1721467130.795565,1
10.0,5.545,0.440645,34.39,1669655.0,1721467131.039043,1
10.0,51.6425,0.436802,34.39,1667088.0,1721467131.282521,1
10.0,-37.0725,0.436802,34.39,1672899.0,1721467131.526,1
10.0,42.8975,0.438083,34.39,1644045.0,1721467131.769478,1
10.0,30.6725,0.443207,34.39,1644708.5,1721467132.012957,1
10.0,-76.6625,0.441926,34.39,1658162.0,1721467132.256435,1
10.0,84.5625,0.438083,34.39,1660040.5,1721467132.560783,1
10.0,-8.6175,0.438083,34.39,1668979.5,1721467132.804261,1
10.0,-29.465,0.440645,34.39,1643886.0,1721467133.047739,1
10.0,55.88,0.443207,34.37,1635960.0,1721467133.291217,1
10.0,-14.925,0.444488,34.37,1643556.0,1721467133.534696,1
10.0,35.1025,0.444488,34.37,1621291.0,1721467133.778174,1
10.0,62.67,0.445769,34.37,1628026.0,1721467134.021652,1
10.0,-51.096667,0.44705,34.39,1639214.0,1721467134.26513,1
10.0,-139.74,0.44705,34.39,1615967.5,1721467134.508609,1
10.0,68.8675,0.445769,34.39,1619476.5,1721467134.752087,1
10.0,-1.5275,0.441926,34.39,1634965.0,1721467135.056435,1
10.0,-81.3725,0.440645,34.41,1614765.0,1721467135.299913,1
10.0,144.9925,0.440645,34.41,1620641.5,1721467135.543391,1
10.0,-42.8225,0.443207,34.41,1635072.0,1721467135.78687,1
10.0,-154.633333,0.444488,34.41,1621662.5,1721467136.030348,1
10.0,87.825,0.444488,34.39,1628519.0,1721467136.273826,1
10.0,39.1325,0.440645,34.39,1643357.0,1721467136.517304,1
10.0,-65.385,0.441926,34.39,1643591.0,1721467136.760783,1
10.0,78.785,0.445769,34.39,1648480.0,1721467137.004261,1
10.0,52.2725,0.445769,34.37,1668286.0,1721467137.308609,1
10.0,-102.715,0.444488,34.37,1668640.0,1721467137.552087,1
10.0,23.356667,0.441926,34.37,1680242.0,1721467137.795565,1
10.0,-31.275,0.441926,34.37,1694914.0,1721467138.039043,1
10.0,22.9325,0.444488,34.37,1685171.0,1721467138.282521,1
10.0,22.2775,0.44705,34.37,1689068.0,1721467138.526,1
10.0,-69.6975,0.448331,34.37,1695771.0,1721467138.769478,1
10.0,89.05,0.44705,34.37,1686071.0,1721467139.012957,1
10.0,32.825,0.443207,34.39,1692155.0,1721467139.256435,1
10.0,-129.515,0.445769,34.39,1689326.0,1721467139.560783,1
10.0,87.175,0.44705,34.39,1689342.5,1721467139.804261,1
10.0,29.2175,0.448331,34.39,1700075.0,1721467140.047739,1
10.0,-101.535,0.444488,34.39,1687198.0,1721467140.291217,1
10.0,90.655,0.444488,34.39,1685475.5,1721467140.534696,1
10.0,30.9775,0.448331,34.39,1691897.0,1721467140.778174,1
10.0,-71.085,0.44705,34.39,1681653.0,1721467141.021652,1
10.0,67.62,0.448331,34.37,1684446.0,1721467141.26513,1
10.0,47.0825,0.445769,34.37,1695196.5,1721467141.508609,1
10.0,-10.195,0.445769,34.37,1695649.0,1721467141.752087,1
10.0,-94.7475,0.44705,34.37,1701361.5,1721467142.056435,1
10.0,76.9625,0.448331,34.37,1728245.5,1721467142.299913,1
10.0,6.81,0.44705,34.37,1736659.0,1721467142.543391,1
10.0,-120.17,0.444488,34.37,1732294.0,1721467142.78687,1
10.0,90.683333,0.444488,34.37,1743322.0,1721467143.030348,1
10.0,26.2,0.445769,34.34,1758709.0,1721467143.273826,1
10.0,-108.8525,0.450893,34.34,1758974.5,1721467143.517304,1
10.0,92.685,0.450893,34.34,1767241.5,1721467143.760783,1
10.0,24.7525,0.452174,34.34,1777887.5,1721467144.004261,1
10.0,-96.2425,0.449612,34.37,1770890.0,1721467144.308609,1
10.0,50.5875,0.449612,34.37,1762307.0,1721467144.552087,1
10.0,-23.236667,0.454736,34.37,1763235.5,1721467144.795565,1
10.0,-55.0375,0.456017,34.37,1743831.0,1721467145.039043,1
10.0,47.7475,0.458578,34.39,1743816.0,1721467145.282521,1
10.0,-12.5025,0.457297,34.39,1745193.5,1721467145.526,1
10.0,-105.08,0.457297,34.39,1725517.5,1721467145.769478,1
10.0,86.52,0.457297,34.39,1724495.5,1721467146.012957,1
10.0,-13.0325,0.462421,34.39,1736265.0,1721467146.256435,1
10.0,7.645,0.46114,34.39,1738556.0,1721467146.560783,1
10.0,4.5775,0.458578,34.39,1749248.0,1721467146.804261,1
10.0,-87.0075,0.462421,34.39,1748017.5,1721467147.047739,1
10.0,92.4525,0.463702,34.39,1747408.5,1721467147.291217,1
10.0,29.61,0.471388,34.39,1756593.5,1721467147.534696,1
10.0,-76.46,0.481635,34.39,1750683.0,1721467147.778174,1
10.0,95.705,0.484197,34.39,1757321.0,1721467148.021652,1
10.0,42.753333,0.481635,34.37,1766835.0,1721467148.26513,1
10.0,-48.03,0.481635,34.37,1759934.0,1721467148.508609,1
10.0,3.265,0.484197,34.37,1750310.0,1721467148.752087,1
10.0,51.435,0.486759,34.37,1757458.0,1721467149.056435,1
10.0,-45.94,0.48804,34.39,1748951.0,1721467149.299913,1
10.0,-6.3025,0.482916,34.39,1744886.0,1721467149.543391,1
10.0,24.0975,0.480354,34.39,1749428.0,1721467149.78687,1
10.0,-23.293333,0.481635,34.39,1748877.0,1721467150.030348,1
10.0,-65.7125,0.480354,34.37,1735852.0,1721467150.273826,1
10.0,70.2475,0.482916,34.37,1738944.5,1721467150.517304,1
10.0,24.525,0.480354,34.37,1750869.5,1721467150.760783,1
10.0,-118.595,0.47395,34.37,1730645.0,1721467151.004261,1
10.0,40.825,0.471388,34.34,1733321.0,1721467151.308609,1
10.0,3.2625,0.470107,34.34,1742868.0,1721467151.552087,1
10.0,-85.14,0.471388,34.34,1728186.0,1721467151.795565,1
10.0,65.91,0.468826,34.34,1730006.0,1721467152.039043,1
10.0,-34.485,0.466264,34.37,1737949.0,1721467152.282521,1
10.0,-144.195,0.459859,34.37,1722855.5,1721467152.526,1
10.0,79.0475,0.458578,34.37,1723569.0,1721467152.769478,1
10.0,18.7975,0.46114,34.37,1729144.5,1721467153.012957,1
10.0,-123.27,0.459859,34.39,1715428.5,1721467153.256435,1
10.0,58.9275,0.458578,34.39,1713430.5,1721467153.560783,1
10.0,7.2725,0.453455,34.39,1724115.5,1721467153.804261,1
10.0,89.07,0.452174,34.39,1706015.0,1721467154.047739,1
10.0,-57.21,0.456017,34.37,1710160.0,1721467154.291217,1
10.0,-120.18,0.454736,34.37,1714897.0,1721467154.534696,1
10.0,82.4175,0.454736,34.37,1694319.0,1721467154.778174,1
10.0,19.7475,0.454736,34.37,1697101.0,1721467155.021652,1
10.0,-113.136667,0.450893,34.34,1685229.5,1721467155.26513,1
10.0,96.9125,0.450893,34.34,1678618.0,1721467155.508609,1
10.0,42.3875,0.450893,34.34,1682529.0,1721467155.752087,1
10.0,-111.11,0.452174,34.34,1666026.0,1721467156.056435,1
10.0,103.985,0.453455,34.33,1667284.5,1721467156.299913,1
10.0,60.13,0.449612,34.33,1679904.0,1721467156.543391,1
10.0,-27.095,0.448331,34.33,1667598.0,1721467156.78687,1
10.0,-138.473333,0.448331,34.33,1658854.0,1721467157.030348,1
10.0,89.55,0.450893,34.37,1668209.0,1721467157.273826,1
10.0,36.3575,0.450893,34.37,1684618.0,1721467157.517304,1
10.0,-79.0225,0.450893,34.37,1667371.0,1721467157.760783,1
10.0,47.3525,0.448331,34.37,1671610.0,1721467158.004261,1
10.0,46.9275,0.448331,34.39,1690836.0,1721467158.308609,1
10.0,-60.2475,0.452174,34.39,1686744.0,1721467158.552087,1
10.0,1.91,0.456017,34.39,1685977.0,1721467158.795565,1
10.0,45.5825,0.456017,34.39,1689551.0,1721467159.039043,1
10.0,-33.455,0.454736,34.37,1702350.5,1721467159.282521,1
10.0,-40.8425,0.454736,34.37,1685603.5,1721467159.526,1
10.0,69.64,0.457297,34.37,1691267.5,1721467159.769478,1
10.0,-56.51,0.462421,34.37,1703281.5,1721467160.012957,1
10.0,-74.5425,0.46114,34.37,1686965.5,1721467160.256435,1
10.0,33.8125,0.458578,34.37,1692210.0,1721467160.560783,1
10.0,-40.4875,0.457297,34.37,1701139.0,1721467160.804261,1
10.0,27.9125,0.46114,34.37,1684293.5,1721467161.047739,1
10.0,38.3675,0.459859,34.37,1689612.0,1721467161.291217,1
10.0,-13.53,0.458578,34.37,1701876.0,1721467161.534696,1
10.0,-133.895,0.454736,34.37,1684455.0,1721467161.778174,1
10.0,82.4975,0.452174,34.37,1691180.0,1721467162.021652,1
10.0,36.37,0.452174,34.37,1707262.0,1721467162.26513,1
10.0,-84.0875,0.453455,34.37,1721464.5,1721467162.508609,1
10.0,68.1225,0.456017,34.37,1737940.5,1721467162.752087,1
10.0,48.6425,0.459859,34.37,1760284.0,1721467163.056435,1
10.0,-40.0275,0.464983,34.34,1764631.0,1721467163.299913,1
10.0,-66.5,0.467545,34.34,1741751.5,1721467163.543391,1
10.0,49.2175,0.477793,34.34,1735616.5,1721467163.78687,1
10.0,-4.386667,0.481635,34.34,1739765.0,1721467164.030348,1
10.0,-135.585,0.482916,34.37,1720175.0,1721467164.273826,1
10.0,88.485,0.482916,34.37,1716591.0,1721467164.517304,1
10.0,51.6125,0.484197,34.37,1727734.0,1721467164.760783,1
10.0,-60.745,0.486759,34.37,1752885.0,1721467165.004261,1
10.0,88.57,0.484197,34.34,1751322.5,1721467165.308609,1
10.0,42.1675,0.484197,34.34,1756782.0,1721467165.552087,1
10.0,-45.176667,0.482916,34.34,1752812.0,1721467165.795565,1
10.0,22.375,0.477793,34.34,1754753.5,1721467166.039043,1
10.0,63.4375,0.475231,34.34,1764661.5,1721467166.282521,1
10.0,-31.8125,0.481635,34.34,1766884.0,1721467166.526,1
10.0,-105.6225,0.479074,34.34,1757403.0,1721467166.769478,1
10.0,63.06,0.479074,34.34,1761678.5,1721467167.012957,1
10.0,-6.835,0.47395,34.34,1765469.0,1721467167.256435,1
10.0,-39.3925,0.471388,34.34,1745107.5,1721467167.560783,1
10.0,41.975,0.467545,34.34,1749537.5,1721467167.804261,1
10.0,-32.93,0.472669,34.34,1753896.0,1721467168.047739,1
10.0,11.57,0.477793,34.37,1746643.0,1721467168.291217,1
10.0,27.2475,0.485478,34.37,1755252.0,1721467168.534696,1
10.0,-46.2575,0.48804,34.37,1771810.5,1721467168.778174,1
10.0,77.5925,0.489321,34.37,1783043.0,1721467169.021652,1
10.0,15.163333,0.491883,34.34,1786382.0,1721467169.26513,1
10.0,-102.9275,0.493164,34.34,1788509.5,1721467169.508609,1
10.0,62.1175,0.493164,34.34,1794556.0,1721467169.752087,1
10.0,-19.7375,0.48804,34.34,1802313.0,1721467170.056435,1
10.0,29.87,0.485478,34.39,1794132.5,1721467170.299913,1
10.0,26.5325,0.481635,34.39,1795649.5,1721467170.543391,1
10.0,-50.9575,0.479074,34.39,1799944.0,1721467170.78687,1
10.0,66.983333,0.479074,34.39,1812737.0,1721467171.030348,1
10.0,51.4525,0.48804,34.34,1817366.0,1721467171.273826,1
10.0,-30.98,0.470107,34.34,1819103.0,1721467171.517304,1
10.0,-5.0825,0.468826,34.34,1816363.0,1721467171.760783,1
10.0,33.9975,0.470107,34.34,1824659.0,1721467172.004261,1
10.0,-64.56,0.472669,34.39,1825971.0,1721467172.308609,1
10.0,-104.875,0.472669,34.39,1805528.0,1721467172.552087,1
10.0,77.103333,0.470107,34.39,1721730.0,1721467172.795565,1
10.0,-52.775,0.470107,34.39,1651112.0,1721467173.039043,1
10.0,-185.205,0.47395,34.34,1591118.0,1721467173.282521,1
10.0,147.425,0.479074,34.34,1596121.0,1721467173.526,1
2.0,27.9325,0.331805,33.34,2101303.0,1769235672.257292,1
2.0,-76.8975,0.386892,33.34,2086744.0,1769235672.548958,1
2.0,77.745,0.351021,33.34,2091373.0,1769235672.782292,1
2.0,-1.516667,0.340773,33.34,2093692.5,1769235673.015625,1
2.0,68.905,0.343335,33.33,2090214.0,1769235673.307292,1
2.0,-260.525,0.340773,33.33,2099530.5,1769235673.540625,1
2.0,5.44,0.342054,33.33,2090778.5,1769235673.773958,1
2.0,73.12,0.342054,33.33,2097498.5,1769235674.007292,1
2.0,-109.43,0.340773,33.34,2101879.0,1769235674.298958,1
2.0,106.9375,0.342054,33.34,2102794.0,1769235674.532292,1
2.0,62.563333,0.352302,33.34,2113478.5,1769235674.765625,1
2.0,100.6975,0.354865,33.34,2110641.0,1769235675.057292,1
2.0,224.495,0.356146,33.34,2117966.5,1769235675.290625,1
2.0,-21.985,0.216506,33.34,2127192.0,1769235675.523958,1
2.0,55.4375,0.340773,33.34,2124664.0,1769235675.757292,1
2.0,-181.615,0.352302,33.34,2135307.5,1769235676.048958,1
2.0,-112.88,0.354865,33.37,2130265.0,1769235676.282292,1
2.0,-340.566667,0.353584,33.37,2136322.0,1769235676.515625,1
2.0,-88.52,0.351021,33.37,2136861.5,1769235676.807292,1
2.0,292.0375,0.353584,33.37,2136906.0,1769235677.040625,1
2.0,37.3,0.354865,33.37,2144561.0,1769235677.273958,1
2.0,239.8475,0.357427,33.37,2135457.0,1769235677.507292,1
2.0,27.4925,0.358708,33.37,2140134.0,1769235677.798958,1
2.0,14.395,0.358708,33.37,2135938.0,1769235678.032292,1
2.0,-43.283333,0.353584,33.37,2134118.0,1769235678.265625,1
2.0,-277.0825,0.352302,33.37,2130140.5,1769235678.557292,1
2.0,208.21,0.352302,33.37,2123509.5,1769235678.790625,1
2.0,119.2625,0.353584,33.37,2126246.0,1769235679.023958,1
2.0,-127.5725,0.351021,33.37,2110978.0,1769235679.257292,1
2.0,-173.2275,0.347178,33.37,2112376.0,1769235679.548958,1
2.0,-140.105,0.342054,33.37,2105252.5,1769235679.782292,1
2.0,282.926667,0.345897,33.37,2095141.0,1769235680.015625,1
2.0,-183.1025,0.348459,33.39,2076050.0,1769235680.307292,1
2.0,116.8575,0.356146,33.39,2066410.0,1769235680.540625,1
2.0,-92.6625,0.36127,33.39,2065700.5,1769235680.773958,1
2.0,-178.9025,0.357427,33.39,2062057.0,1769235681.007292,1
2.0,104.885,0.368957,33.39,2067483.5,1769235681.298958,1
2.0,-116.8675,0.36127,33.39,2083990.5,1769235681.532292,1
2.0,261.99,0.365113,33.39,2104222.5,1769235681.765625,1
2.0,25.45,0.362551,33.39,2121598.0,1769235682.057292,1
2.0,-67.9375,0.362551,33.37,2136822.0,1769235682.290625,1
2.0,92.2475,0.36127,33.37,2157266.0,1769235682.523958,1
2.0,-206.4175,0.368957,33.37,2165587.0,1769235682.757292,1
2.0,167.7425,0.359989,33.37,2177287.5,1769235683.048958,1
2.0,54.54,0.327962,33.34,2189511.5,1769235683.282292,1
2.0,21.536667,0.3728,33.34,2196903.0,1769235683.515625,1
2.0,-80.465,0.3728,33.34,2200581.0,1769235683.807292,1
2.0,-236.805,0.381768,33.34,2171788.0,1769235684.040625,1
2.0,257.135,0.379206,33.34,2178165.0,1769235684.273958,1
2.0,-51.2675,0.371519,33.34,2191721.0,1769235684.507292,1
2.0,55.3175,0.367676,33.34,2209838.0,1769235684.798958,1
2.0,-146.3475,0.363832,33.34,2215659.0,1769235685.032292,1
2.0,128.693333,0.357427,33.37,2220760.0,1769235685.265625,1
2.0,-216.45,0.351021,33.37,2242927.0,1769235685.557292,1
2.0,175.7225,0.353584,33.37,2240928.0,1769235685.790625,1
2.0,160.53,0.351021,33.37,2251754.0,1769235686.023958,1
2.0,-125.245,0.34974,33.37,2259323.0,1769235686.257292,1
2.0,-36.205,0.345897,33.37,2261892.0,1769235686.548958,1
2.0,-85.9025,0.34974,33.37,2268641.0,1769235686.782292,1
2.0,246.776667,0.347178,33.37,2266493.5,1769235687.015625,1
2.0,-450.9225,0.34974,33.34,2275247.0,1769235687.307292,1
2.0,70.3175,0.352302,33.34,2265681.0,1769235687.540625,1
2.0,44.6725,0.351021,33.34,2267780.5,1769235687.773958,1
2.0,29.3375,0.345897,33.34,2267016.0,1769235688.007292,1
2.0,15.87,0.347178,33.37,2269426.5,1769235688.298958,1
2.0,-62.475,0.345897,33.37,2272971.0,1769235688.532292,1
2.0,51.916667,0.308745,33.37,2267924.5,1769235688.765625,1
2.0,-222.1,0.347178,33.37,2279467.0,1769235689.057292,1
2.0,76.9125,0.343335,33.37,2253107.0,1769235689.290625,1
2.0,63.1975,0.340773,33.37,2259604.0,1769235689.523958,1
2.0,175.385,0.342054,33.37,2245041.0,1769235689.757292,1
2.0,-6.72,0.340773,33.37,2239642.5,1769235690.048958,1
2.0,103.8225,0.343335,33.34,2232632.0,1769235690.282292,1
2.0,-6.09,0.343335,33.34,2209663.0,1769235690.515625,1
2.0,26.8175,0.340773,33.34,2207482.0,1769235690.807292,1
2.0,-23.775,0.353584,33.34,2181596.0,1769235691.040625,1
2.0,-192.365,0.347178,33.34,2179512.0,1769235691.273958,1
2.0,101.4575,0.343335,33.34,2160590.0,1769235691.507292,1
2.0,-180.885,0.345897,33.34,2156018.0,1769235691.798958,1
2.0,197.56,0.345897,33.34,2132018.5,1769235692.032292,1
2.0,208.84,0.340773,33.33,2113918.5,1769235692.265625,1
2.0,-123.85,0.340773,33.33,2116252.5,1769235692.557292,1
2.0,-455.7325,0.342054,33.33,2122095.5,1769235692.790625,1
2.0,-36.055,0.342054,33.33,2138811.0,1769235693.023958,1
2.0,191.15,0.343335,33.34,2125745.0,1769235693.257292,1
2.0,-15.33,0.339491,33.34,2135369.5,1769235693.548958,1
2.0,79.7675,0.231879,33.34,2124775.5,1769235693.782292,1
2.0,-92.37,0.335648,33.34,2133048.0,1769235694.015625,1
2.0,169.725,0.33821,33.33,2126785.0,1769235694.307292,1
2.0,30.63,0.339491,33.33,2126326.5,1769235694.540625,1
2.0,-338.12,0.336929,33.33,2115696.0,1769235694.773958,1
2.0,19.7975,0.334367,33.33,2104251.0,1769235695.007292,1
2.0,136.0475,0.334367,33.31,2107992.0,1769235695.298958,1
2.0,47.4,0.335648,33.31,2096121.0,1769235695.532292,1
2.0,-173.253333,0.340773,33.31,2105400.0,1769235695.765625,1
2.0,93.345,0.343335,33.31,2092388.0,1769235696.057292,1
2.0,-78.3525,0.32668,33.33,2099286.0,1769235696.290625,1
2.0,192.0375,0.333086,33.33,2089587.0,1769235696.523958,1
2.0,144.3175,0.336929,33.33,2088800.0,1769235696.757292,1
2.0,-334.4325,0.334367,33.33,2092393.0,1769235697.048958,1
2.0,-12.225,0.335648,33.33,2094248.0,1769235697.282292,1
2.0,-164.113333,0.334367,33.33,2102525.0,1769235697.515625,1
2.0,114.3325,0.331805,33.33,2089260.0,1769235697.807292,1
2.0,-125.82,0.331805,33.33,2096633.0,1769235698.040625,1
2.0,115.785,0.33821,33.33,2088312.0,1769235698.273958,1
2.0,-34.445,0.344616,33.33,2093766.5,1769235698.507292,1
2.0,97.2025,0.348459,33.33,2092849.5,1769235698.798958,1
2.0,9.9575,0.347178,33.33,2092105.0,1769235699.032292,1
2.0,-79.083333,0.351021,33.31,2104206.5,1769235699.265625,1
2.0,82.9075,0.34974,33.31,2103760.5,1769235699.557292,1
2.0,-444.8825,0.34974,33.31,2115535.5,1769235699.790625,1
2.0,205.53,0.345897,33.31,2102720.0,1769235700.023958,1
2.0,101.9325,0.342054,33.29,2102911.0,1769235700.257292,1
2.0,164.07,0.340773,33.29,2094718.0,1769235700.548958,1
2.0,-30.4025,0.342054,33.29,2091147.0,1769235700.782292,1
2.0,-122.33,0.343335,33.29,2091950.0,1769235701.015625,1
2.0,-42.6825,0.344616,33.29,2083081.0,1769235701.307292,1
2.0,-169.405,0.343335,33.29,2094384.0,1769235701.540625,1
2.0,158.9225,0.343335,33.29,2082180.0,1769235701.773958,1
2.0,-2.3325,0.340773,33.29,2089674.0,1769235702.007292,1
2.0,-199.615,0.345897,33.27,2082612.5,1769235702.298958,1
2.0,-201.62,0.347178,33.27,2082005.0,1769235702.532292,1
2.0,197.346667,0.344616,33.27,2081520.0,1769235702.765625,1
2.0,-53.3275,0.340773,33.27,2075580.0,1769235703.057292,1
2.0,103.59,0.342054,33.27,2084847.0,1769235703.290625,1
2.0,-23.7575,0.340773,33.27,2075777.0,1769235703.523958,1
2.0,-19.815,0.33821,33.27,2085625.0,1769235703.757292,1
2.0,-50.46,0.340773,33.27,2090579.0,1769235704.048958,1
2.0,9.055,0.342054,33.29,2102456.0,1769235704.282292,1
2.0,322.193333,0.347178,33.29,2106788.0,1769235704.515625,1
2.0,-111.3275,0.348459,33.29,2129930.0,1769235704.807292,1
