ID,empatica_bvp,empatica_eda,empatica_temp,samsung_bvp,time,CL
6.0,163.00750000000002,0.556197,32.81,1963053.75,1611470310.425,1
6.0,80.59636363636363,0.534421,32.81,1963447.6,1611470310.6,1
6.0,-9.47909090909091,0.661235,32.81,1967816.25,1611470310.775,1
6.0,38.875454545454545,,,1975358.0,1611470310.95,1
6.0,170.65636363636364,0.639459,32.81,1980544.8,1611470311.125,1
6.0,57.45916666666667,0.638178,32.83,1987460.25,1611470311.3,1
6.0,-13.80181818181818,,,2005286.75,1611470311.475,1
6.0,-335.14363636363635,0.639459,32.83,2043692.0,1611470311.65,1
6.0,-437.88545454545454,0.639459,32.83,2065151.0,1611470311.825,1
6.0,-1.3609090909090902,,,2072721.0,1611470312.0,1
6.0,47.35666666666666,0.64202,32.83,2083452.8,1611470312.175,1
6.0,97.03454545454547,0.638178,32.81,2094175.0,1611470312.35,1
6.0,84.03000000000002,0.635616,32.81,2106206.4,1611470312.525,1
6.0,8.474545454545456,,,2115538.25,1611470312.7,1
6.0,-12.985454545454546,0.639459,32.81,2121700.25,1611470312.875,1
6.0,-8.339166666666667,0.636897,32.81,2130625.8,1611470313.05,1
6.0,32.97454545454545,,,2143203.75,1611470313.225,1
6.0,46.368181818181824,0.635616,32.79,2152393.4,1611470313.4,1
6.0,-16.038181818181815,0.639459,32.79,2161015.0,1611470313.575,1
6.0,-46.24272727272727,,,2169728.0,1611470313.75,1
6.0,-20.774166666666666,0.634335,32.79,2176076.75,1611470313.925,1
6.0,-24.94,0.639459,32.79,2180535.5,1611470314.1,1
6.0,-23.820909090909094,0.64202,32.81,2190188.0,1611470314.275,1
6.0,11.863636363636363,,,2203005.25,1611470314.45,1
6.0,44.47636363636364,0.645863,32.81,2211518.4,1611470314.625,1
6.0,-2.7066666666666666,0.643301,32.81,2220504.25,1611470314.8,1
6.0,5.974545454545455,,,2228457.0,1611470314.975,1
6.0,-12.510909090909092,0.649706,32.81,2232952.4,1611470315.15,1
6.0,-20.937272727272727,0.644582,32.81,2235744.25,1611470315.325,1
6.0,4.886363636363637,,,2240724.5,1611470315.5,1
6.0,11.521666666666667,0.643301,32.81,2243200.2,1611470315.675,1
6.0,-5.1445454545454545,0.640739,32.81,2241661.0,1611470315.85,1
6.0,4.786363636363636,0.640739,32.81,2237036.0,1611470316.025,1
6.0,8.838181818181818,,,2235077.0,1611470316.2,1
6.0,-10.752727272727272,0.643301,32.79,2238355.5,1611470316.375,1
6.0,-7.745833333333333,0.639459,32.79,2251061.6,1611470316.55,1
6.0,3.2236363636363636,,,2261958.0,1611470316.725,1
6.0,5.765454545454546,0.639459,32.79,2264447.0,1611470316.9,1
6.0,-7.225454545454545,0.636897,32.79,2267587.4,1611470317.075,1
6.0,16.51,,,2275667.5,1611470317.25,1
6.0,-2.5,0.633054,32.81,2280844.6,1611470317.425,1
6.0,-20.900909090909092,0.633054,32.81,2284900.5,1611470317.6,1
6.0,8.063636363636363,0.634335,32.81,2290095.25,1611470317.775,1
6.0,7.79,,,2293428.2,1611470317.95,1
6.0,-13.734545454545453,0.630492,32.81,2293714.75,1611470318.125,1
6.0,2.0349999999999997,0.635616,32.81,2295930.75,1611470318.3,1
6.0,16.59,,,2283138.0,1611470318.475,1
6.0,4.052727272727273,0.631773,32.81,2280511.5,1611470318.65,1
6.0,-7.216363636363636,0.633054,32.81,2284451.6,1611470318.825,1
6.0,17.245454545454546,,,2294301.0,1611470319.0,1
6.0,6.664999999999999,0.633054,32.81,2294708.75,1611470319.175,1
6.0,-18.843636363636364,0.62793,32.79,2297286.4,1611470319.35,1
6.0,7.452727272727273,0.625368,32.79,2298267.5,1611470319.525,1
6.0,15.425454545454544,,,2293617.75,1611470319.7,1
6.0,2.303636363636364,0.625368,32.79,2292138.2,1611470319.875,1
6.0,-17.638333333333332,0.625368,32.79,2293859.5,1611470320.05,1
6.0,10.132727272727273,,,2290296.6,1611470320.225,1
6.0,8.01909090909091,0.622806,32.79,2285778.5,1611470320.4,1
6.0,-18.048181818181817,0.624087,32.79,2285472.75,1611470320.575,1
6.0,-14.22090909090909,,,2284959.0,1611470320.75,1
6.0,-13.125833333333333,0.621525,32.79,2270391.25,1611470320.925,1
6.0,-43.622727272727275,0.618963,32.79,2270700.5,1611470321.1,1
6.0,-30.30727272727273,0.615121,32.79,2276473.6,1611470321.275,1
6.0,100.93,,,2281366.75,1611470321.45,1
6.0,72.95181818181817,0.616401,32.79,2280718.8,1611470321.625,1
6.0,1.6050000000000004,0.61384,32.79,2283950.0,1611470321.8,1
6.0,-9.66,,,2287310.75,1611470321.975,1
6.0,19.02,0.61384,32.79,2283790.2,1611470322.15,1
6.0,-12.980909090909092,0.609997,32.79,2283472.5,1611470322.325,1
6.0,-25.134545454545457,,,2285105.5,1611470322.5,1
6.0,-10.914166666666667,0.606154,32.79,2283041.4,1611470322.675,1
6.0,5.909090909090909,0.604873,32.79,2278132.5,1611470322.85,1
6.0,-4.505454545454546,0.602311,32.79,2277808.4,1611470323.025,1
6.0,-30.433636363636364,,,2276928.5,1611470323.2,1
6.0,4.8536363636363635,0.60103,32.79,2267224.25,1611470323.375,1
6.0,15.556666666666667,0.597187,32.79,2258719.8,1611470323.55,1
6.0,-4.6036363636363635,,,2259468.75,1611470323.725,1
6.0,3.2509090909090905,0.597187,32.79,2266586.0,1611470323.9,1
6.0,13.809999999999997,0.599749,32.79,2265991.0,1611470324.075,1
6.0,-8.260909090909092,,,2273736.25,1611470324.25,1
6.0,-30.088333333333335,0.60103,32.77,2277438.4,1611470324.425,1
6.0,12.675454545454546,0.597187,32.77,2273621.5,1611470324.6,1
6.0,10.07181818181818,0.597187,32.77,2267388.75,1611470324.775,1
6.0,-25.84181818181818,,,2266736.4,1611470324.95,1
6.0,-5.018181818181818,0.599749,32.77,2268118.75,1611470325.125,1
6.0,25.718333333333334,0.60103,32.81,2262008.0,1611470325.3,1
6.0,3.8063636363636366,,,2256980.0,1611470325.475,1
6.0,-24.094545454545457,0.599749,32.81,2256163.75,1611470325.65,1
6.0,24.386363636363637,0.612559,32.81,2253687.25,1611470325.825,1
6.0,11.610909090909091,,,2246722.0,1611470326.0,1
6.0,-24.578333333333337,0.616401,32.81,2245566.5,1611470326.175,1
6.0,8.817272727272726,0.612559,32.79,2237838.8,1611470326.35,1
6.0,-1.4163636363636365,0.616401,32.79,2232978.0,1611470326.525,1
6.0,-66.23,,,2248662.25,1611470326.7,1
6.0,-121.04454545454547,0.61384,32.79,2263872.6,1611470326.875,1
6.0,4.9433333333333325,0.625368,32.79,2267075.25,1611470327.05,1
6.0,211.04545454545453,,,2262158.75,1611470327.225,1
6.0,244.36454545454546,0.62793,32.81,2261476.8,1611470327.4,1
6.0,-42.31909090909091,0.631773,32.81,2262136.0,1611470327.575,1
6.0,-93.39636363636365,,,2253321.6,1611470327.75,1
6.0,-66.64333333333333,0.630492,32.81,2249894.0,1611470327.925,1
6.0,-11.277272727272726,0.630492,32.81,2250491.0,1611470328.1,1
6.0,-3.982727272727273,0.629211,32.79,2244839.2,1611470328.275,1
6.0,-33.628181818181815,,,2237788.0,1611470328.45,1
6.0,-27.834545454545456,0.629211,32.79,2236326.0,1611470328.625,1
6.0,16.992500000000003,0.631773,32.79,2222104.6,1611470328.8,1
6.0,0.04272727272727262,,,2197608.75,1611470328.975,1
6.0,-14.82818181818182,0.626649,32.79,2199839.0,1611470329.15,1
6.0,25.69909090909091,0.625368,32.79,2206180.8,1611470329.325,1
6.0,4.926363636363636,,,2205100.75,1611470329.5,1
6.0,-23.4025,0.624087,32.79,2209416.0,1611470329.675,1
6.0,22.08818181818182,0.62793,32.79,2216037.25,1611470329.85,1
6.0,9.187272727272727,0.633054,32.79,2212296.25,1611470330.025,1
6.0,-26.364545454545453,,,2203572.0,1611470330.2,1
6.0,10.046363636363635,0.639459,32.79,2200762.0,1611470330.375,1
6.0,13.495833333333332,0.64202,32.79,2195893.5,1611470330.55,1
6.0,-19.233636363636364,,,2183860.2,1611470330.725,1
6.0,-5.423636363636364,0.64202,32.79,2182769.5,1611470330.9,1
6.0,16.613636363636363,0.64202,32.79,2182404.4,1611470331.075,1
6.0,-7.015454545454546,,,2172702.25,1611470331.25,1
6.0,-27.6425,0.64202,32.81,2170720.25,1611470331.425,1
6.0,25.58909090909091,0.638178,32.81,2171666.0,1611470331.6,1
6.0,10.965454545454547,0.635616,32.81,2155549.5,1611470331.775,1
6.0,-23.20181818181818,,,2145103.0,1611470331.95,1
6.0,18.213636363636365,0.631773,32.81,2147097.2,1611470332.125,1
6.0,13.669166666666664,0.629211,32.79,2143334.0,1611470332.3,1
6.0,-19.616363636363637,,,2145328.4,1611470332.475,1
6.0,3.252727272727273,0.62793,32.79,2160487.25,1611470332.65,1
6.0,18.63272727272727,0.621525,32.79,2174824.75,1611470332.825,1
6.0,-12.344545454545454,,,2174699.0,1611470333.0,1
6.0,-35.275,0.621525,32.79,2177282.25,1611470333.175,1
6.0,-2.283636363636364,0.616401,32.77,2180501.25,1611470333.35,1
6.0,10.358181818181821,0.618963,32.77,2172671.2,1611470333.525,1
6.0,-0.5845454545454545,,,2170663.25,1611470333.7,1
6.0,78.76363636363637,0.620244,32.77,2172967.6,1611470333.875,1
6.0,94.85416666666667,0.616401,32.77,2167166.0,1611470334.05,1
6.0,-12.432727272727275,,,2163840.25,1611470334.225,1
6.0,-102.21545454545453,0.617682,32.79,2165428.2,1611470334.4,1
6.0,-50.08363636363637,0.616401,32.79,2162304.25,1611470334.575,1
6.0,18.47,,,2155473.0,1611470334.75,1
6.0,9.886666666666665,0.616401,32.79,2155340.8,1611470334.925,1
6.0,-27.818181818181817,0.615121,32.79,2156335.5,1611470335.1,1
6.0,5.324545454545454,0.609997,32.79,2138152.0,1611470335.275,1
6.0,27.64727272727272,,,2122908.75,1611470335.45,1
6.0,10.511818181818182,0.608716,32.79,2117651.75,1611470335.625,1
6.0,-63.567499999999995,0.608716,32.79,2110535.6,1611470335.8,1
6.0,3.2154545454545445,,,2116851.25,1611470335.975,1
6.0,22.097272727272728,0.607435,32.79,2129940.5,1611470336.15,1
6.0,-14.266363636363637,0.598468,32.77,2146442.6,1611470336.325,1
6.0,-18.21909090909091,,,2149996.25,1611470336.5,1
6.0,44.248333333333335,0.597187,32.77,2147576.6,1611470336.675,1
6.0,54.48727272727273,0.599749,32.77,2152756.25,1611470336.85,1
6.0,13.80818181818182,0.599749,32.77,2158794.75,1611470337.025,1
6.0,15.814545454545453,,,2156681.4,1611470337.2,1
6.0,11.034545454545453,0.60103,32.79,2151407.25,1611470337.375,1
6.0,-71.36333333333333,0.599749,32.79,2153244.2,1611470337.55,1
6.0,-73.62272727272726,,,2152811.0,1611470337.725,1
6.0,-10.686363636363636,0.599749,32.79,2130461.0,1611470337.9,1
6.0,29.767272727272726,0.606154,32.79,2117080.6,1611470338.075,1
6.0,17.575454545454548,,,2125893.5,1611470338.25,1
6.0,-5.7683333333333335,0.599749,32.77,2134920.25,1611470338.425,1
6.0,-33.91727272727273,0.60103,32.77,2109410.0,1611470338.6,1
6.0,-92.25545454545454,0.585659,32.77,2087486.25,1611470338.775,1
6.0,-95.3,,,2104201.4,1611470338.95,1
6.0,-5.921818181818182,0.602311,32.77,2130554.25,1611470339.125,1
6.0,73.74333333333334,0.594625,32.79,2138813.25,1611470339.3,1
6.0,75.22818181818182,,,2146856.4,1611470339.475,1
6.0,100.0,0.593345,32.79,2153153.0,1611470339.65,1
6.0,136.33,0.594625,32.79,2147169.5,1611470339.825,1
6.0,-26.864545454545453,,,2143543.0,1611470340.0,1
6.0,-64.77916666666667,0.592064,32.79,2146361.25,1611470340.175,1
6.0,-28.914545454545454,0.589502,32.79,2149137.0,1611470340.35,1
6.0,-2.651818181818182,0.589502,32.79,2141707.2,1611470340.525,1
6.0,-10.43818181818182,,,2141595.75,1611470340.7,1
6.0,-19.26181818181818,0.58694,32.79,2145468.0,1611470340.875,1
6.0,13.714166666666666,0.590783,32.79,2139049.25,1611470341.05,1
6.0,7.090909090909091,,,2127041.0,1611470341.225,1
6.0,-12.189090909090908,0.593345,32.79,2123314.0,1611470341.4,1
6.0,9.873636363636363,0.590783,32.79,2114463.25,1611470341.575,1
6.0,13.028181818181816,,,2117464.5,1611470341.75,1
6.0,-15.105833333333335,0.590783,32.79,2133250.4,1611470341.925,1
6.0,-18.080909090909095,0.592064,32.79,2142323.75,1611470342.1,1
6.0,18.662727272727274,0.594625,32.79,2143701.6,1611470342.275,1
6.0,9.692727272727273,,,2142198.0,1611470342.45,1
6.0,-14.223636363636361,0.593345,32.79,2146566.5,1611470342.625,1
6.0,10.772499999999999,0.592064,32.79,2150568.6,1611470342.8,1
6.0,5.161818181818182,,,2144043.25,1611470342.975,1
6.0,-15.659090909090908,0.594625,32.79,2143875.25,1611470343.15,1
6.0,-2.73,0.594625,32.77,2147773.8,1611470343.325,1
6.0,19.082727272727276,,,2144432.5,1611470343.5,1
6.0,-4.66,0.592064,32.77,2140104.4,1611470343.675,1
6.0,-31.918181818181814,0.594625,32.77,2130803.75,1611470343.85,1
6.0,6.233636363636364,0.595906,32.77,2128683.25,1611470344.025,1
6.0,13.15,,,2133503.4,1611470344.2,1
6.0,-19.267272727272726,0.598468,32.75,2148017.0,1611470344.375,1
6.0,-11.800833333333335,0.597187,32.75,2154382.75,1611470344.55,1
6.0,28.252727272727274,,,2151561.8,1611470344.725,1
6.0,7.065454545454545,0.594625,32.75,2150297.25,1611470344.9,1
6.0,-31.616363636363634,0.594625,32.75,2154025.2,1611470345.075,1
6.0,3.1100000000000008,,,2153320.0,1611470345.25,1
6.0,19.755,0.593345,32.77,2148048.0,1611470345.425,1
6.0,-9.108181818181817,0.589502,32.77,2150267.4,1611470345.6,1
6.0,-43.89454545454545,0.592064,32.77,2153332.5,1611470345.775,1
6.0,-15.77090909090909,,,2145734.25,1611470345.95,1
6.0,-29.63181818181818,0.589502,32.77,2144167.0,1611470346.125,1
6.0,48.785,0.588221,32.79,2149801.0,1611470346.3,1
6.0,156.43545454545455,,,2153118.6,1611470346.475,1
6.0,14.575454545454544,0.58694,32.79,2159422.25,1611470346.65,1
6.0,-34.27636363636364,0.584378,32.79,2164434.0,1611470346.825,1
6.0,-49.58,,,2170075.0,1611470347.0,1
6.0,0.8633333333333333,0.583097,32.79,2166670.5,1611470347.175,1
6.0,3.8654545454545453,0.579254,32.79,2164861.0,1611470347.35,1
6.0,-21.43909090909091,0.576692,32.79,2168826.0,1611470347.525,1
6.0,-13.165454545454544,,,2173468.0,1611470347.7,1
6.0,17.626363636363635,0.577973,32.79,2168034.0,1611470347.875,1
6.0,4.273333333333333,0.581816,32.79,2167332.2,1611470348.05,1
6.0,-21.795454545454543,,,2170867.0,1611470348.225,1
6.0,12.587272727272728,0.580535,32.75,2169953.2,1611470348.4,1
6.0,21.44545454545455,0.583097,32.75,2166783.25,1611470348.575,1
6.0,0.8754545454545455,,,2168559.5,1611470348.75,1
6.0,-26.53833333333333,0.588221,32.75,2170963.2,1611470348.925,1
6.0,9.803636363636365,0.590783,32.75,2163669.5,1611470349.1,1
6.0,17.454545454545453,0.588221,32.79,2162212.0,1611470349.275,1
6.0,-3.8,,,2165768.8,1611470349.45,1
6.0,-19.230000000000004,0.588221,32.79,2166603.5,1611470349.625,1
6.0,2.7424999999999997,0.588221,32.79,2158880.8,1611470349.8,1
6.0,-5.66090909090909,,,2159188.75,1611470349.975,1
6.0,-32.26181818181818,0.585659,32.79,2163194.5,1611470350.15,1
6.0,11.924545454545456,0.584378,32.77,2159799.6,1611470350.325,1
6.0,18.390909090909087,,,2156078.0,1611470350.5,1
6.0,-2.904166666666667,0.577973,32.77,2152582.0,1611470350.675,1
6.0,-15.27909090909091,0.571568,32.77,2142636.0,1611470350.85,1
6.0,17.61818181818182,0.569007,32.77,2137402.25,1611470351.025,1
6.0,7.6463636363636365,,,2133871.2,1611470351.2,1
6.0,-26.55636363636364,0.571568,32.77,2140242.75,1611470351.375,1
6.0,-23.120833333333334,0.570287,32.77,2154651.0,1611470351.55,1
6.0,5.215454545454546,,,2161416.8,1611470351.725,1
6.0,4.367272727272728,0.579254,32.77,2167795.0,1611470351.9,1
6.0,-18.153636363636362,0.576692,32.77,2173662.0,1611470352.075,1
6.0,8.42727272727273,,,2170622.0,1611470352.25,1
6.0,49.39666666666667,0.575411,32.77,2167935.25,1611470352.425,1
6.0,117.73636363636363,0.571568,32.77,2171517.6,1611470352.6,1
6.0,-27.10636363636364,0.572849,32.77,2174521.5,1611470352.775,1
6.0,-41.306363636363635,,,2168265.25,1611470352.95,1
6.0,-37.18090909090909,0.567726,32.77,2168457.4,1611470353.125,1
6.0,-37.72083333333333,0.569007,32.79,2172904.25,1611470353.3,1
6.0,-3.229090909090908,,,2172864.0,1611470353.475,1
6.0,21.044545454545457,0.566445,32.79,2167860.6,1611470353.65,1
6.0,6.221818181818182,0.562602,32.79,2164049.5,1611470353.825,1
6.0,-28.657272727272723,,,2163296.75,1611470354.0,1
6.0,-0.03416666666666668,0.562602,32.79,2165618.2,1611470354.175,1
6.0,-0.4227272727272726,0.56004,32.77,2170128.5,1611470354.35,1
6.0,-21.52909090909091,0.558759,32.77,2176441.2,1611470354.525,1
6.0,-17.085454545454546,,,2179943.25,1611470354.7,1
6.0,21.151818181818182,0.556197,32.77,2176353.0,1611470354.875,1
6.0,26.330833333333334,0.56004,32.77,2179229.6,1611470355.05,1
6.0,24.299999999999997,,,2184552.25,1611470355.225,1
6.0,53.07090909090909,0.562602,32.77,2184340.75,1611470355.4,1
6.0,73.48818181818181,0.561321,32.77,2180156.0,1611470355.575,1
6.0,48.444545454545455,,,2182839.75,1611470355.75,1
6.0,-45.85583333333333,0.565164,32.77,2187717.0,1611470355.925,1
6.0,-111.52999999999999,0.569007,32.77,2183201.75,1611470356.1,1
6.0,49.36818181818182,0.567726,32.79,2182424.5,1611470356.275,1
6.0,5.16090909090909,,,2185988.0,1611470356.45,1
6.0,-72.0190909090909,0.569007,32.79,2184419.75,1611470356.625,1
6.0,-19.534166666666668,0.570287,32.79,2167196.25,1611470356.8,1
6.0,-12.976363636363637,,,2155845.4,1611470356.975,1
6.0,-23.496363636363636,0.566445,32.79,2148923.25,1611470357.15,1
6.0,-24.523636363636363,0.563883,32.77,2141862.2,1611470357.325,1
6.0,-23.95818181818182,,,2133228.25,1611470357.5,1
6.0,-89.06083333333333,0.561321,32.77,2135953.75,1611470357.675,1
6.0,-31.455454545454543,0.558759,32.77,2148180.6,1611470357.85,1
6.0,86.89818181818181,0.562602,32.77,2157404.0,1611470358.025,1
6.0,75.8690909090909,,,2161425.75,1611470358.2,1
6.0,40.72909090909091,0.553635,32.77,2166993.4,1611470358.375,1
6.0,37.42916666666667,0.553635,32.77,2171776.25,1611470358.55,1
6.0,7.262727272727273,,,2167162.4,1611470358.725,1
6.0,-51.095454545454544,0.554916,32.77,2168283.75,1611470358.9,1
6.0,-39.96454545454545,0.551073,32.77,2172533.75,1611470359.075,1
6.0,14.344545454545454,,,2171135.6,1611470359.25,1
6.0,-8.300833333333333,0.548511,32.77,2168049.0,1611470359.425,1
6.0,-30.86727272727273,0.54595,32.77,2169411.0,1611470359.6,1
6.0,17.04090909090909,0.56004,32.77,2167122.6,1611470359.775,1
6.0,1.2936363636363637,,,2139726.5,1611470359.95,1
6.0,-42.31909090909091,0.557478,32.77,2130769.0,1611470360.125,1
6.0,-9.232500000000002,0.554916,32.79,2132525.6,1611470360.3,1
6.0,137.79363636363635,,,2140411.5,1611470360.475,1
6.0,64.69363636363636,0.554916,32.79,2164882.2,1611470360.65,1
6.0,-28.59454545454545,0.552354,32.79,2187572.5,1611470360.825,1
6.0,-48.93363636363636,,,2193210.5,1611470361.0,1
6.0,-45.362500000000004,0.553635,32.79,2190158.2,1611470361.175,1
6.0,-54.470909090909096,0.551073,32.75,2193262.75,1611470361.35,1
6.0,14.760909090909092,0.551073,32.75,2197372.5,1611470361.525,1
6.0,19.362727272727273,,,2192824.6,1611470361.7,1
6.0,-20.217272727272725,0.543388,32.75,2191010.75,1611470361.875,1
6.0,-3.2616666666666663,0.54595,32.75,2193307.0,1611470362.05,1
6.0,-5.49,,,2191232.4,1611470362.225,1
6.0,-82.05727272727273,0.548511,32.77,2187778.5,1611470362.4,1
6.0,-90.97090909090909,0.54595,32.77,2190614.6,1611470362.575,1
6.0,49.473636363636366,,,2190798.75,1611470362.75,1
6.0,80.6875,0.54723,32.77,2184076.75,1611470362.925,1
6.0,39.484545454545454,0.552354,32.77,2183985.4,1611470363.1,1
6.0,57.02363636363636,0.548511,32.77,2185651.25,1611470363.275,1
6.0,97.18545454545455,,,2176859.6,1611470363.45,1
6.0,81.4509090909091,0.549792,32.77,2173977.5,1611470363.625,1
6.0,-25.597499999999997,0.548511,32.77,2175656.5,1611470363.8,1
6.0,-30.50272727272727,,,2172219.2,1611470363.975,1
6.0,-7.493636363636364,0.551073,32.77,2166191.75,1611470364.15,1
6.0,-35.32363636363636,0.54595,32.77,2166529.25,1611470364.325,1
6.0,-45.23363636363636,,,2168681.0,1611470364.5,1
6.0,18.105833333333333,0.548511,32.77,2161833.75,1611470364.675,1
6.0,7.365454545454545,0.544669,32.77,2160654.6,1611470364.85,1
6.0,-33.41272727272727,0.543388,32.77,2163665.5,1611470365.025,1
6.0,2.0363636363636375,,,2151992.25,1611470365.2,1
6.0,8.500909090909092,0.543388,32.79,2128878.2,1611470365.375,1
6.0,-59.020833333333336,0.543388,32.79,2139171.0,1611470365.55,1
6.0,-129.53181818181818,,,2160437.75,1611470365.725,1
6.0,70.43,0.542107,32.79,2164748.8,1611470365.9,1
6.0,191.6609090909091,0.542107,32.79,2164107.25,1611470366.075,1
6.0,82.03272727272727,,,2167997.25,1611470366.25,1
6.0,-54.95583333333334,0.538264,32.79,2172344.4,1611470366.425,1
6.0,-24.518181818181816,0.535702,32.79,2165946.25,1611470366.6,1
6.0,-24.30272727272727,0.536983,32.79,2165973.8,1611470366.775,1
6.0,-50.08181818181818,,,2170005.75,1611470366.95,1
6.0,-1.3009090909090917,0.53314,32.79,2168541.25,1611470367.125,1
6.0,5.409166666666667,0.531859,32.79,2163075.8,1611470367.3,1
6.0,-26.421818181818185,,,2164584.5,1611470367.475,1
6.0,-19.185454545454544,0.531859,32.79,2168996.5,1611470367.65,1
6.0,30.14,0.530578,32.79,2159743.0,1611470367.825,1
6.0,6.170909090909092,,,2140047.25,1611470368.0,1
6.0,-25.659166666666664,0.530578,32.79,2142734.0,1611470368.175,1
6.0,1.1790909090909103,0.53314,32.77,2160577.5,1611470368.35,1
6.0,21.55090909090909,0.53314,32.77,2177008.0,1611470368.525,1
6.0,-20.676363636363636,,,2185506.8,1611470368.7,1
6.0,-8.301818181818183,0.53314,32.77,2192447.75,1611470368.875,1
6.0,34.57083333333333,0.53314,32.77,2192272.75,1611470369.05,1
6.0,4.113636363636363,,,2190784.4,1611470369.225,1
6.0,-38.50363636363637,0.53314,32.79,2194136.75,1611470369.4,1
6.0,20.759090909090908,0.531859,32.79,2195676.6,1611470369.575,1
6.0,17.556363636363635,,,2189498.0,1611470369.75,1
6.0,-21.84166666666667,0.526735,32.79,2189616.75,1611470369.925,1
6.0,-9.372727272727273,0.53314,32.79,2192279.0,1611470370.1,1
6.0,6.001818181818181,0.535702,32.77,2180620.75,1611470370.275,1
6.0,-57.98272727272728,,,2173412.5,1611470370.45,1
6.0,-115.1618181818182,0.530578,32.77,2183430.0,1611470370.625,1
6.0,85.8725,0.529297,32.77,2200717.0,1611470370.8,1
6.0,295.48545454545456,,,2199932.6,1611470370.975,1
6.0,-7.077272727272728,0.529297,32.77,2203111.5,1611470371.15,1
6.0,-91.31454545454545,0.528016,32.77,2207174.5,1611470371.325,1
6.0,-26.258181818181814,,,2202686.4,1611470371.5,1
6.0,-29.234166666666663,0.530578,32.77,2200434.25,1611470371.675,1
6.0,-41.28545454545455,0.530578,32.77,2202893.0,1611470371.85,1
6.0,21.053636363636365,0.531859,32.77,2203899.8,1611470372.025,1
6.0,8.407272727272728,,,2198947.0,1611470372.2,1
6.0,-34.56909090909091,0.530578,32.79,2200047.6,1611470372.375,1
6.0,-2.5799999999999996,0.528016,32.79,2202273.5,1611470372.55,1
6.0,15.351818181818185,,,2196508.75,1611470372.725,1
6.0,-16.546363636363637,0.526735,32.79,2195972.4,1611470372.9,1
6.0,-33.801818181818184,0.524173,32.79,2198981.0,1611470373.075,1
6.0,30.677272727272726,,,2196986.0,1611470373.25,1
6.0,9.365833333333333,0.524173,32.75,2190831.8,1611470373.425,1
6.0,-32.300000000000004,0.53314,32.75,2191462.5,1611470373.6,1
6.0,13.894545454545455,0.528016,32.75,2194155.0,1611470373.775,1
6.0,2.3499999999999996,,,2186772.0,1611470373.95,1
6.0,16.364545454545453,0.528016,32.75,2184173.75,1611470374.125,1
6.0,149.8125,0.529297,32.79,2186709.6,1611470374.3,1
6.0,2.7663636363636375,,,2184333.75,1611470374.475,1
6.0,-92.15727272727271,0.522892,32.79,2179134.75,1611470374.65,1
6.0,-102.00818181818182,0.525454,32.79,2180260.4,1611470374.825,1
6.0,-29.299999999999997,,,2177225.5,1611470375.0,1
6.0,30.24083333333333,0.522892,32.79,2162815.75,1611470375.175,1
6.0,2.562727272727273,0.522892,32.81,2160916.2,1611470375.35,1
6.0,-22.92,0.522892,32.81,2161294.75,1611470375.525,1
6.0,34.97545454545455,,,2152945.8,1611470375.7,1
6.0,16.79090909090909,0.51905,32.81,2146751.75,1611470375.875,1
6.0,-30.265833333333337,0.520331,32.81,2150115.0,1611470376.05,1
6.0,-3.1599999999999993,,,2152242.4,1611470376.225,1
6.0,-2.9536363636363636,0.513926,32.79,2150699.75,1611470376.4,1
6.0,-12.55181818181818,0.515207,32.79,2158987.75,1611470376.575,1
6.0,-3.860909090909091,,,2166761.6,1611470376.75,1
6.0,37.589166666666664,0.516488,32.79,2166413.25,1611470376.925,1
6.0,16.422727272727272,0.512645,32.79,2160745.2,1611470377.1,1
6.0,-25.995454545454546,0.516488,32.77,2161718.0,1611470377.275,1
6.0,-10.312727272727274,,,2164609.0,1611470377.45,1
6.0,30.816363636363636,0.510083,32.77,2159414.6,1611470377.625,1
6.0,2.6700000000000004,0.50624,32.77,2159409.5,1611470377.8,1
6.0,-48.04818181818182,,,2162880.0,1611470377.975,1
6.0,9.32909090909091,0.511364,32.77,2160876.8,1611470378.15,1
6.0,24.65727272727273,0.508802,32.79,2149465.75,1611470378.325,1
6.0,-15.062727272727273,,,2135543.75,1611470378.5,1
6.0,-45.916666666666664,0.504959,32.79,2141473.4,1611470378.675,1
6.0,-39.85636363636363,0.512645,32.79,2148418.25,1611470378.85,1
6.0,41.054545454545455,0.507521,32.79,2167460.8,1611470379.025,1
6.0,22.727272727272727,,,2177583.75,1611470379.2,1
6.0,87.78090909090909,0.510083,32.79,2180160.5,1611470379.375,1
6.0,156.58,0.50624,32.79,2175370.4,1611470379.55,1
6.0,-40.12909090909091,,,2177505.25,1611470379.725,1
6.0,-132.08363636363637,0.507521,32.79,2182492.25,1611470379.9,1
6.0,-49.32,0.503678,32.79,2181625.6,1611470380.075,1
6.0,-12.663636363636364,,,2179572.75,1611470380.25,1
6.0,-34.46166666666667,0.504959,32.77,2183103.6,1611470380.425,1
6.0,10.50090909090909,0.50624,32.77,2186567.25,1611470380.6,1
6.0,37.76,0.502397,32.77,2180780.0,1611470380.775,1
6.0,7.509090909090909,,,2171512.8,1611470380.95,1
6.0,-36.513636363636365,0.504959,32.77,2171258.0,1611470381.125,1
6.0,28.125833333333333,0.510083,32.77,2173075.25,1611470381.3,1
6.0,18.217272727272725,,,2175357.8,1611470381.475,1
6.0,-21.881818181818183,0.510083,32.77,2179888.5,1611470381.65,1
6.0,-5.496363636363637,0.501116,32.77,2183384.4,1611470381.825,1
6.0,64.08818181818181,,,2176856.25,1611470382.0,1
6.0,113.1275,0.501116,32.77,2176351.75,1611470382.175,1
6.0,-64.58090909090909,0.502397,32.79,2180067.2,1611470382.35,1
6.0,-65.95,0.498555,32.79,2179009.0,1611470382.525,1
6.0,-24.3,,,2174533.25,1611470382.7,1
6.0,-17.263636363636365,0.495993,32.79,2176273.6,1611470382.875,1
6.0,-45.3125,0.498555,32.79,2180468.5,1611470383.05,1
6.0,25.01,,,2174898.2,1611470383.225,1
6.0,17.923636363636362,0.493431,32.77,2173163.75,1611470383.4,1
6.0,-24.963636363636365,0.493431,32.77,2172300.5,1611470383.575,1
6.0,-17.033636363636365,,,2165642.4,1611470383.75,1
6.0,25.1125,0.488307,32.77,2151266.0,1611470383.925,1
6.0,-19.24,0.501116,32.77,2150257.5,1611470384.1,1
6.0,-102.15818181818182,0.507521,32.79,2160971.4,1611470384.275,1
6.0,-111.76545454545453,,,2164200.0,1611470384.45,1
6.0,183.20181818181817,0.51905,32.79,2163911.8,1611470384.625,1
6.0,236.02416666666667,0.524173,32.79,2167916.25,1611470384.8,1
6.0,-75.46090909090908,,,2172383.25,1611470384.975,1
6.0,-50.92363636363637,0.530578,32.79,2165549.0,1611470385.15,1
6.0,-25.681818181818183,0.531859,32.79,2163419.25,1611470385.325,1
6.0,-49.190909090909095,,,2166399.4,1611470385.5,1
6.0,12.286666666666667,0.531859,32.79,2165812.5,1611470385.675,1
6.0,15.55181818181818,0.528016,32.79,2158661.25,1611470385.85,1
6.0,-23.703636363636363,0.526735,32.79,2158620.6,1611470386.025,1
6.0,-23.094545454545457,,,2161575.75,1611470386.2,1
6.0,26.45909090909091,0.525454,32.79,2150962.5,1611470386.375,1
6.0,-7.9725,0.521612,32.79,2132986.0,1611470386.55,1
6.0,-75.58090909090909,,,2141935.75,1611470386.725,1
6.0,-7.835454545454544,0.516488,32.79,2152043.4,1611470386.9,1
6.0,96.20909090909093,0.511364,32.79,2148101.75,1611470387.075,1
6.0,46.65909090909091,,,2149346.0,1611470387.25,1
6.0,-18.425,0.512645,32.79,2153634.2,1611470387.425,1
6.0,32.93090909090909,0.508802,32.79,2149205.25,1611470387.6,1
6.0,11.244545454545454,0.50624,32.79,2144611.0,1611470387.775,1
6.0,-28.45,,,2144987.8,1611470387.95,1
6.0,-35.442727272727275,0.507521,32.79,2144816.25,1611470388.125,1
6.0,28.502499999999998,0.503678,32.79,2134986.2,1611470388.3,1
6.0,8.042727272727273,,,2133133.0,1611470388.475,1
6.0,-42.20454545454545,0.504959,32.79,2134683.0,1611470388.65,1
6.0,-10.409999999999998,0.508802,32.79,2114151.6,1611470388.825,1
6.0,-14.91909090909091,,,2093267.75,1611470389.0,1
6.0,-87.00833333333333,0.510083,32.79,2094843.5,1611470389.175,1
6.0,-21.52,0.508802,32.79,2108700.8,1611470389.35,1
6.0,311.9890909090909,0.516488,32.79,2111806.5,1611470389.525,1
6.0,78.74,,,2116929.8,1611470389.7,1
6.0,-86.82909090909092,0.51905,32.79,2123239.0,1611470389.875,1
6.0,-87.59666666666668,0.534421,32.79,2126618.25,1611470390.05,1
6.0,3.811818181818182,,,2117822.0,1611470390.225,1
6.0,-1.3427272727272728,0.525454,32.77,2116994.75,1611470390.4,1
6.0,-37.26272727272727,0.522892,32.77,2120844.75,1611470390.575,1
6.0,-22.513636363636365,,,2122131.4,1611470390.75,1
6.0,25.505833333333328,0.524173,32.77,2120153.0,1611470390.925,1
6.0,3.9454545454545453,0.513926,32.77,2124247.75,1611470391.1,1
6.0,-50.17000000000001,0.515207,32.79,2129583.6,1611470391.275,1
6.0,-34.79272727272727,,,2124427.0,1611470391.45,1
6.0,-22.270000000000003,0.511364,32.79,2124035.4,1611470391.625,1
6.0,19.199166666666667,0.507521,32.79,2128382.0,1611470391.8,1
6.0,85.05818181818181,,,2131295.75,1611470391.975,1
6.0,112.88181818181819,0.504959,32.79,2124368.0,1611470392.15,1
6.0,-13.194545454545453,0.504959,32.79,2125338.25,1611470392.325,1
6.0,-55.23090909090909,,,2129900.25,1611470392.5,1
6.0,-63.902499999999996,0.502397,32.79,2133382.4,1611470392.675,1
6.0,33.01909090909091,0.497274,32.79,2128776.0,1611470392.85,1
6.0,12.104545454545455,0.501116,32.79,2131570.0,1611470393.025,1
6.0,-40.63363636363636,,,2137924.0,1611470393.2,1
6.0,-41.18272727272727,0.502397,32.81,2138723.5,1611470393.375,1
6.0,19.676666666666666,0.502397,32.81,2135713.4,1611470393.55,1
6.0,-2.0827272727272725,,,2139063.5,1611470393.725,1
6.0,-56.25090909090909,0.503678,32.81,2145309.75,1611470393.9,1
6.0,-103.54818181818183,0.501116,32.81,2145387.0,1611470394.075,1
6.0,-63.08636363636363,,,2145816.25,1611470394.25,1
6.0,234.485,0.498555,32.79,2151127.6,1611470394.425,1
6.0,193.66636363636363,0.499835,32.79,2156621.75,1611470394.6,1
6.0,-85.82727272727273,0.497274,32.79,2153270.75,1611470394.775,1
6.0,-63.624545454545455,,,2156020.8,1611470394.95,1
6.0,-24.174545454545452,0.495993,32.79,2162235.5,1611470395.125,1
6.0,-32.95916666666667,0.495993,32.79,2167100.75,1611470395.3,1
6.0,-43.444545454545455,,,2163036.2,1611470395.475,1
6.0,21.94272727272727,0.494712,32.79,2164772.25,1611470395.65,1
6.0,10.938181818181818,0.49215,32.79,2170454.4,1611470395.825,1
6.0,-25.91818181818182,,,2174754.5,1611470396.0,1
6.0,-17.2475,0.490869,32.79,2167443.0,1611470396.175,1
6.0,-22.29363636363636,0.493431,32.79,2166574.8,1611470396.35,1
6.0,-99.93181818181819,0.489588,32.79,2177798.75,1611470396.525,1
6.0,-122.48545454545454,,,2184364.5,1611470396.7,1
6.0,164.12727272727273,0.488307,32.79,2180529.2,1611470396.875,1
6.0,318.95,0.488307,32.79,2181575.0,1611470397.05,1
6.0,9.391818181818175,,,2185876.0,1611470397.225,1
6.0,-120.82090909090908,0.485745,32.81,2191140.8,1611470397.4,1
6.0,-47.82090909090909,0.484464,32.81,2188408.25,1611470397.575,1
6.0,-23.813636363636363,,,2190589.0,1611470397.75,1
6.0,-55.998333333333335,0.485745,32.81,2195650.5,1611470397.925,1
6.0,-33.48909090909091,0.488307,32.81,2197290.0,1611470398.1,1
6.0,22.384545454545453,0.484464,32.79,2195416.2,1611470398.275,1
6.0,-4.866363636363636,,,2198762.0,1611470398.45,1
6.0,-68.91636363636364,0.490869,32.79,2203477.0,1611470398.625,1
6.0,-25.228333333333335,0.493431,32.79,2200108.4,1611470398.8,1
6.0,-29.723636363636366,,,2198786.25,1611470398.975,1
6.0,69.85454545454546,0.497274,32.79,2202403.6,1611470399.15,1
6.0,135.73636363636362,0.497274,32.79,2205395.75,1611470399.325,1
6.0,28.018181818181823,,,2199048.5,1611470399.5,1
6.0,-5.165,0.498555,32.79,2197699.6,1611470399.675,1
6.0,-54.035454545454556,0.501116,32.79,2199267.5,1611470399.85,1
6.0,-29.020909090909093,0.501116,32.79,2196814.0,1611470400.025,1
6.0,24.784545454545455,,,2186176.4,1611470400.2,1
6.0,0.5718181818181819,0.501116,32.81,2181256.5,1611470400.375,1
6.0,-51.74583333333334,0.502397,32.81,2180310.8,1611470400.55,1
6.0,13.644545454545455,,,2172644.75,1611470400.725,1
6.0,23.932727272727274,0.499835,32.81,2165325.75,1611470400.9,1
6.0,-38.50545454545455,0.495993,32.81,2163267.6,1611470401.075,1
6.0,-116.22636363636364,,,2163939.25,1611470401.25,1
6.0,69.44833333333334,0.49215,32.81,2156051.75,1611470401.425,1
6.0,98.56181818181818,0.493431,32.81,2152404.8,1611470401.6,1
6.0,44.118181818181824,0.489588,32.81,2152693.0,1611470401.775,1
6.0,-24.573636363636364,,,2150393.0,1611470401.95,1
6.0,12.605454545454545,0.489588,32.81,2141152.75,1611470402.125,1
6.0,12.419166666666667,0.487026,32.79,2138525.75,1611470402.3,1
6.0,-20.05818181818182,,,2139440.4,1611470402.475,1
6.0,-19.10545454545455,0.484464,32.79,2132813.5,1611470402.65,1
6.0,27.431818181818183,0.485745,32.79,2125594.75,1611470402.825,1
6.0,4.458181818181818,,,2124482.6,1611470403.0,1
6.0,-52.232499999999995,0.487026,32.79,2125430.25,1611470403.175,1
6.0,4.170000000000001,0.485745,32.81,2107587.75,1611470403.35,1
6.0,-22.762727272727272,0.485745,32.81,2084855.0,1611470403.525,1
6.0,-118.04181818181819,,,2066477.75,1611470403.7,1
6.0,-61.19818181818182,0.484464,32.81,2081735.8,1611470403.875,1
6.0,156.25583333333333,0.484464,32.81,2099855.75,1611470404.05,1
6.0,31.684545454545457,,,2108586.25,1611470404.225,1
6.0,-64.82272727272726,0.483183,32.79,2116489.8,1611470404.4,1
6.0,88.48818181818183,0.485745,32.79,2122374.0,1611470404.575,1
6.0,145.14636363636362,,,2119084.5,1611470404.75,1
6.0,56.892500000000005,0.485745,32.79,2122860.4,1611470404.925,1
6.0,-67.33181818181818,0.487026,32.79,2130861.25,1611470405.1,1
6.0,-20.86,0.481902,32.79,2130433.8,1611470405.275,1
6.0,-17.61181818181818,,,2129923.25,1611470405.45,1
6.0,-41.36545454545455,0.480621,32.79,2133967.5,1611470405.625,1
6.0,-39.385,0.47934,32.79,2138494.0,1611470405.8,1
6.0,14.961818181818183,,,2133305.0,1611470405.975,1
6.0,-2.946363636363636,0.481902,32.79,2133106.25,1611470406.15,1
6.0,-39.49727272727273,0.481902,32.81,2136601.8,1611470406.325,1
6.0,19.653636363636362,,,2120953.0,1611470406.5,1
6.0,9.37,0.485745,32.81,2120615.2,1611470406.675,1
6.0,-34.07909090909091,0.489588,32.81,2143341.0,1611470406.85,1
6.0,-16.35909090909091,0.495993,32.81,2162654.75,1611470407.025,1
6.0,30.21363636363636,,,2159843.4,1611470407.2,1
6.0,0.26181818181818195,0.498555,32.79,2158796.25,1611470407.375,1
6.0,-31.960833333333337,0.502397,32.79,2162123.5,1611470407.55,1
6.0,31.526363636363634,,,2165619.8,1611470407.725,1
6.0,11.32,0.497274,32.79,2160491.75,1611470407.9,1
6.0,-34.233636363636364,0.497274,32.79,2161757.6,1611470408.075,1
6.0,-5.510909090909091,,,2165841.25,1611470408.25,1
6.0,24.7925,0.495993,32.79,2162810.0,1611470408.425,1
6.0,-8.601818181818182,0.49215,32.79,2160907.8,1611470408.6,1
6.0,-37.25636363636364,0.490869,32.79,2157232.5,1611470408.775,1
6.0,23.459090909090904,,,2151480.5,1611470408.95,1
6.0,-2.521818181818182,0.490869,32.79,2143546.8,1611470409.125,1
6.0,-56.43416666666667,0.490869,32.81,2151890.75,1611470409.3,1
6.0,66.70454545454545,,,2171520.5,1611470409.475,1
6.0,81.08363636363636,0.489588,32.81,2186302.4,1611470409.65,1
6.0,-32.52090909090909,0.487026,32.81,2190778.25,1611470409.825,1
6.0,-25.824545454545454,,,2200440.2,1611470410.0,1
6.0,4.988333333333333,0.488307,32.81,2202072.75,1611470410.175,1
6.0,-30.44818181818182,0.489588,32.81,2196753.75,1611470410.35,1
6.0,-35.43909090909091,0.483183,32.81,2198409.2,1611470410.525,1
6.0,30.145454545454548,,,2201974.75,1611470410.7,1
6.0,4.718181818181818,0.484464,32.81,2196114.0,1611470410.875,1
6.0,-36.26166666666666,0.483183,32.81,2194607.6,1611470411.05,1
6.0,-2.0863636363636364,,,2194817.75,1611470411.225,1
6.0,-75.61090909090909,0.487026,32.81,2190950.2,1611470411.4,1
6.0,-96.66272727272727,0.485745,32.81,2185458.5,1611470411.575,1
6.0,179.4890909090909,,,2191047.0,1611470411.75,1
6.0,201.43083333333334,0.487026,32.81,2204711.8,1611470411.925,1
6.0,36.95,0.507521,32.81,2207413.25,1611470412.1,1
6.0,-81.13454545454545,0.493431,32.81,2212893.0,1611470412.275,1
6.0,-56.56181818181819,,,2215003.8,1611470412.45,1
6.0,-43.43,0.489588,32.81,2206494.25,1611470412.625,1
6.0,-54.30916666666667,0.488307,32.81,2204726.2,1611470412.8,1
6.0,24.043636363636367,,,2205657.5,1611470412.975,1
6.0,14.053636363636365,0.487026,32.81,2197602.0,1611470413.15,1
6.0,-30.428181818181816,0.484464,32.83,2195146.8,1611470413.325,1
6.0,9.371818181818183,,,2195949.0,1611470413.5,1
6.0,14.915,0.485745,32.83,2190011.0,1611470413.675,1
6.0,-25.25272727272727,0.490869,32.83,2180746.2,1611470413.85,1
6.0,-29.279999999999998,0.490869,32.83,2187979.25,1611470414.025,1
6.0,20.882727272727273,,,2196505.0,1611470414.2,1
6.0,82.28181818181817,0.488307,32.81,2189188.6,1611470414.375,1
6.0,118.81916666666666,0.481902,32.81,2187729.75,1611470414.55,1
6.0,-59.10272727272727,,,2189263.4,1611470414.725,1
6.0,-66.99,0.483183,32.81,2180516.5,1611470414.9,1
6.0,-37.23909090909091,0.484464,32.81,2176280.5,1611470415.075,1
6.0,-57.60909090909092,,,2176614.8,1611470415.25,1
6.0,15.524999999999999,0.481902,32.81,2171801.75,1611470415.425,1
6.0,15.47181818181818,0.480621,32.81,2165435.5,1611470415.6,1
6.0,-18.777272727272727,0.480621,32.81,2165222.4,1611470415.775,1
6.0,-22.28909090909091,,,2162971.5,1611470415.95,1
6.0,26.125454545454545,0.480621,32.81,2137097.2,1611470416.125,1
6.0,-3.1008333333333336,0.485745,32.81,2104542.0,1611470416.3,1
6.0,-58.103636363636355,,,2091951.75,1611470416.475,1
6.0,2.454545454545456,0.488307,32.81,2100294.4,1611470416.65,1
6.0,17.701818181818183,0.49215,32.81,2104871.5,1611470416.825,1
6.0,39.31181818181818,,,2109972.25,1611470417.0,1
6.0,36.0325,0.498555,32.81,2117889.0,1611470417.175,1
6.0,12.435454545454547,0.499835,32.81,2112307.25,1611470417.35,1
6.0,-8.524545454545455,0.502397,32.81,2110849.0,1611470417.525,1
6.0,-38.94090909090908,,,2115378.0,1611470417.7,1
6.0,12.446363636363635,0.495993,32.81,2118655.5,1611470417.875,1
6.0,-4.2441666666666675,0.499835,32.81,2111229.2,1611470418.05,1
6.0,-29.720000000000002,,,2111810.5,1611470418.225,1
6.0,14.822727272727274,0.495993,32.81,2109090.0,1611470418.4,1
6.0,41.42909090909091,0.495993,32.81,2085629.0,1611470418.575,1
6.0,2.242727272727273,,,2062296.75,1611470418.75,1
6.0,-39.11083333333334,0.495993,32.81,2053943.0,1611470418.925,1
6.0,-28.884545454545457,0.497274,32.81,2068960.75,1611470419.1,1
6.0,-41.00363636363637,0.499835,32.81,2085854.0,1611470419.275,1
6.0,36.50454545454546,,,2096407.4,1611470419.45,1
6.0,117.07454545454544,0.495993,32.81,2105446.0,1611470419.625,1
6.0,19.94333333333333,0.495993,32.81,2100939.0,1611470419.8,1
6.0,-53.628181818181815,,,2100403.2,1611470419.975,1
6.0,-4.420909090909091,0.497274,32.81,2106216.5,1611470420.15,1
6.0,4.553636363636364,0.498555,32.83,2107810.2,1611470420.325,1
6.0,-26.379999999999995,,,2105024.25,1611470420.5,1
6.0,-13.071666666666665,0.493431,32.83,2108831.75,1611470420.675,1
6.0,16.65818181818182,0.49215,32.83,2112358.4,1611470420.85,1
6.0,-17.685454545454544,0.489588,32.83,2088655.25,1611470421.025,1
6.0,-38.876363636363635,,,2076701.5,1611470421.2,1
6.0,-31.94090909090909,0.490869,32.81,2087295.0,1611470421.375,1
6.0,-122.96499999999999,0.495993,32.81,2094062.75,1611470421.55,1
6.0,-73.66636363636366,,,2105143.0,1611470421.725,1
6.0,192.19727272727275,0.493431,32.81,2129061.0,1611470421.9,1
6.0,194.74363636363634,0.493431,32.81,2137281.75,1611470422.075,1
6.0,150.17454545454547,,,2138739.6,1611470422.25,1
6.0,39.579166666666666,0.494712,32.83,2145334.75,1611470422.425,1
6.0,-104.32363636363635,0.498555,32.83,2149480.75,1611470422.6,1
6.0,-105.93545454545455,0.497274,32.83,2147746.4,1611470422.775,1
6.0,-69.65818181818182,,,2150992.5,1611470422.95,1
6.0,8.433636363636365,0.510083,32.83,2154259.5,1611470423.125,1
6.0,-6.109999999999999,0.494712,32.83,2150975.0,1611470423.3,1
6.0,-45.99272727272727,,,2153487.25,1611470423.475,1
6.0,22.46,0.494712,32.83,2157816.6,1611470423.65,1
6.0,11.285454545454547,0.49215,32.83,2155332.25,1611470423.825,1
6.0,-40.93,,,2157684.5,1611470424.0,1
6.0,-74.42083333333333,0.490869,32.83,2162390.6,1611470424.175,1
6.0,-57.07363636363636,0.490869,32.81,2159912.25,1611470424.35,1
6.0,-35.61818181818182,0.488307,32.81,2159887.75,1611470424.525,1
6.0,76.03818181818181,,,2163679.2,1611470424.7,1
6.0,148.68454545454546,0.481902,32.81,2165008.75,1611470424.875,1
6.0,278.1333333333334,0.483183,32.81,2161375.2,1611470425.05,1
6.0,-57.46636363636364,,,2164058.5,1611470425.225,1
6.0,-130.21454545454546,0.480621,32.81,2168438.0,1611470425.4,1
6.0,-50.974545454545456,0.478059,32.81,2164729.0,1611470425.575,1
6.0,-30.672727272727272,,,2164081.25,1611470425.75,1
6.0,-54.748333333333335,0.47934,32.81,2167075.25,1611470425.925,1
6.0,5.287272727272728,0.480621,32.81,2168999.8,1611470426.1,1
6.0,25.270000000000003,0.478059,32.83,2164865.75,1611470426.275,1
6.0,-13.622727272727275,,,2171647.75,1611470426.45,1
6.0,-47.75,0.489588,32.83,2178849.2,1611470426.625,1
6.0,-12.138333333333334,0.484464,32.83,2177017.75,1611470426.8,1
6.0,-31.423636363636362,,,2178161.2,1611470426.975,1
6.0,-52.061818181818175,0.490869,32.83,2182465.5,1611470427.15,1
6.0,-6.282727272727272,0.489588,32.81,2183703.25,1611470427.325,1
6.0,130.95818181818183,,,2179541.6,1611470427.5,1
6.0,98.20333333333333,0.493431,32.81,2181411.75,1611470427.675,1
6.0,0.5109090909090913,0.49215,32.81,2185585.75,1611470427.85,1
6.0,-11.514545454545454,0.490869,32.81,2182915.4,1611470428.025,1
6.0,-21.69909090909091,,,2178746.25,1611470428.2,1
6.0,-47.43727272727272,0.489588,32.83,2180496.8,1611470428.375,1
6.0,-19.07166666666667,0.488307,32.83,2183316.5,1611470428.55,1
6.0,28.12636363636364,,,2177711.0,1611470428.725,1
6.0,-4.499090909090909,0.487026,32.83,2178071.8,1611470428.9,1
6.0,-49.959090909090904,0.478059,32.83,2182389.25,1611470429.075,1
6.0,6.418181818181819,,,2174736.5,1611470429.25,1
6.0,-23.132499999999997,0.480621,32.81,2151977.2,1611470429.425,1
6.0,-77.76545454545455,0.47934,32.81,2153715.75,1611470429.6,1
6.0,77.85727272727273,0.483183,32.81,2166953.0,1611470429.775,1
6.0,220.15545454545452,,,2175024.25,1611470429.95,1
6.0,-8.796363636363637,0.483183,32.81,2177542.0,1611470430.125,1
6.0,-90.675,0.481902,32.83,2182453.4,1611470430.3,1
6.0,-29.482727272727267,,,2183668.0,1611470430.475,1
6.0,-2.390909090909091,0.483183,32.83,2180843.25,1611470430.65,1
6.0,-23.50363636363636,0.484464,32.83,2184446.0,1611470430.825,1
6.0,-13.732727272727272,,,2188821.0,1611470431.0,1
6.0,20.3625,0.485745,32.83,2182701.2,1611470431.175,1
6.0,-10.288181818181819,0.487026,32.83,2179982.0,1611470431.35,1
6.0,-36.82818181818182,0.484464,32.83,2182558.5,1611470431.525,1
6.0,34.834545454545456,,,2183251.6,1611470431.7,1
6.0,30.059090909090912,0.483183,32.83,2177235.0,1611470431.875,1
6.0,-38.11083333333333,0.480621,32.83,2178051.75,1611470432.05,1
6.0,1.598181818181818,,,2181690.8,1611470432.225,1
6.0,21.779999999999998,0.481902,32.79,2175439.25,1611470432.4,1
6.0,-0.24636363636363653,0.480621,32.79,2169857.75,1611470432.575,1
6.0,-46.49818181818182,,,2167812.8,1611470432.75,1
6.0,31.885,0.478059,32.79,2164577.75,1611470432.925,1
6.0,37.22181818181818,0.47934,32.79,2154017.8,1611470433.1,1
6.0,-4.778181818181818,0.478059,32.83,2151501.75,1611470433.275,1
6.0,-46.99,,,2151078.2,1611470433.45,1
6.0,27.701818181818183,0.475498,32.83,2141399.5,1611470433.625,1
6.0,18.41333333333333,0.474217,32.83,2139126.0,1611470433.8,1
6.0,-23.003636363636364,,,2136892.6,1611470433.975,1
6.0,-20.470000000000002,0.475498,32.83,2127328.75,1611470434.15,1
6.0,30.78818181818182,0.47934,32.83,2106782.0,1611470434.325,1
6.0,17.281818181818178,,,2105304.0,1611470434.5,1
6.0,-2.2166666666666663,0.478059,32.83,2127264.5,1611470434.675,1
6.0,24.10090909090909,0.485745,32.83,2125727.8,1611470434.85,1
6.0,3.0672727272727274,0.485745,32.83,2122120.0,1611470435.025,1
6.0,-47.57636363636364,,,2123805.5,1611470435.2,1
6.0,-50.25363636363636,0.493431,32.81,2128038.6,1611470435.375,1
6.0,35.31083333333333,0.49215,32.81,2119872.75,1611470435.55,1
6.0,14.855454545454545,,,2117051.75,1611470435.725,1
6.0,-35.025454545454544,0.495993,32.81,2119704.0,1611470435.9,1
6.0,5.601818181818181,0.493431,32.81,2122097.0,1611470436.075,1
6.0,33.49545454545454,,,2115802.75,1611470436.25,1
6.0,0.9391666666666666,0.49215,32.83,2116192.4,1611470436.425,1
6.0,-42.60181818181818,0.493431,32.83,2120856.0,1611470436.6,1
6.0,25.596363636363638,0.493431,32.83,2114536.4,1611470436.775,1
6.0,14.360909090909091,,,2101017.25,1611470436.95,1
6.0,-32.21545454545455,0.490869,32.83,2116474.25,1611470437.125,1
6.0,-50.70333333333334,0.490869,32.83,2140224.8,1611470437.3,1
6.0,-57.02181818181818,,,2149674.0,1611470437.475,1
6.0,3.227272727272728,0.490869,32.83,2152471.5,1611470437.65,1
6.0,36.99727272727273,0.490869,32.83,2154111.0,1611470437.825,1
6.0,87.06272727272727,,,2150917.75,1611470438.0,1
6.0,45.807500000000005,0.490869,32.83,2143075.8,1611470438.175,1
6.0,13.555454545454547,0.489588,32.83,2142414.5,1611470438.35,1
6.0,164.30727272727273,0.489588,32.83,2143040.25,1611470438.525,1
6.0,9.085454545454546,,,2134997.0,1611470438.7,1
6.0,-59.9,0.489588,32.83,2130712.5,1611470438.875,1
6.0,-72.70833333333333,0.487026,32.83,2132472.0,1611470439.05,1
6.0,-80.2781818181818,,,2132874.2,1611470439.225,1
6.0,0.8763636363636368,0.488307,32.83,2126047.25,1611470439.4,1
6.0,12.468181818181817,0.487026,32.83,2126870.2,1611470439.575,1
6.0,-16.57090909090909,,,2130480.75,1611470439.75,1
6.0,-44.29916666666667,0.488307,32.83,2125611.75,1611470439.925,1
6.0,25.26181818181818,0.487026,32.83,2123806.2,1611470440.1,1
6.0,16.137272727272727,0.49215,32.83,2119568.25,1611470440.275,1
6.0,-24.859090909090913,,,2120409.0,1611470440.45,1
6.0,-67.57545454545453,0.489588,32.83,2125466.6,1611470440.625,1
6.0,47.51083333333333,0.488307,32.83,2128239.0,1611470440.8,1
6.0,51.214545454545444,,,2132441.6,1611470440.975,1
6.0,-1.0063636363636363,0.485745,32.83,2135798.25,1611470441.15,1
6.0,-21.25272727272727,0.488307,32.84,2129817.25,1611470441.325,1
6.0,23.622727272727275,,,2130238.8,1611470441.5,1
6.0,1.8016666666666667,0.488307,32.84,2134808.25,1611470441.675,1
6.0,-41.49909090909091,0.487026,32.84,2140116.75,1611470441.85,1
6.0,3.11,0.487026,32.84,2136588.6,1611470442.025,1
6.0,17.979999999999997,,,2137515.75,1611470442.2,1
6.0,-8.08909090909091,0.487026,32.83,2142824.8,1611470442.375,1
6.0,-38.52833333333333,0.481902,32.83,2149342.75,1611470442.55,1
6.0,33.8609090909091,,,2146427.5,1611470442.725,1
6.0,27.08909090909091,0.480621,32.83,2147701.2,1611470442.9,1
6.0,-35.53363636363636,0.480621,32.83,2152400.0,1611470443.075,1
6.0,-45.60454545454545,,,2156631.25,1611470443.25,1
6.0,58.5025,0.481902,32.84,2153423.6,1611470443.425,1
6.0,31.91272727272727,0.47934,32.84,2155288.5,1611470443.6,1
6.0,-51.116363636363644,0.481902,32.84,2159359.0,1611470443.775,1
6.0,7.390909090909091,,,2159213.2,1611470443.95,1
6.0,22.05,0.483183,32.84,2156260.5,1611470444.125,1
6.0,-15.776666666666666,0.481902,32.84,2158972.4,1611470444.3,1
6.0,-26.985454545454537,,,2163069.25,1611470444.475,1
6.0,24.362727272727273,0.475498,32.84,2158917.0,1611470444.65,1
6.0,3.7072727272727275,0.481902,32.84,2157968.4,1611470444.825,1
6.0,-31.090909090909097,,,2157541.25,1611470445.0,1
6.0,22.849166666666665,0.484464,32.84,2147985.75,1611470445.175,1
6.0,8.611818181818181,0.490869,32.84,2141776.2,1611470445.35,1
6.0,-36.89636363636364,0.495993,32.84,2155695.75,1611470445.525,1
6.0,-1.3399999999999996,,,2165642.2,1611470445.7,1
6.0,2.77,0.497274,32.84,2163966.5,1611470445.875,1
6.0,-72.51916666666666,0.498555,32.84,2162873.0,1611470446.05,1
6.0,-94.13909090909091,,,2166150.0,1611470446.225,1
6.0,93.13909090909091,0.502397,32.83,2169492.0,1611470446.4,1
6.0,197.88363636363638,0.501116,32.83,2165320.25,1611470446.575,1
6.0,118.26545454545455,,,2166487.4,1611470446.75,1
6.0,40.949999999999996,0.502397,32.83,2170523.75,1611470446.925,1
6.0,-106.69909090909091,0.499835,32.83,2167301.4,1611470447.1,1
6.0,-34.91909090909091,0.49215,32.83,2167504.0,1611470447.275,1
6.0,-48.094545454545454,,,2170448.25,1611470447.45,1
6.0,-68.47454545454545,0.490869,32.83,2168998.0,1611470447.625,1
6.0,-21.836666666666662,0.488307,32.83,2165524.25,1611470447.8,1
6.0,36.918181818181814,,,2167876.75,1611470447.975,1
6.0,4.492727272727273,0.485745,32.83,2171139.8,1611470448.15,1
6.0,-15.541818181818183,0.481902,32.81,2163192.75,1611470448.325,1
6.0,31.04727272727273,,,2143507.5,1611470448.5,1
6.0,-2.0533333333333332,0.489588,32.81,2130125.6,1611470448.675,1
6.0,-70.91545454545455,0.487026,32.81,2128385.5,1611470448.85,1
6.0,-33.558181818181815,0.485745,32.81,2136987.0,1611470449.025,1
6.0,179.90909090909088,,,2148751.75,1611470449.2,1
6.0,166.32,0.489588,32.84,2158720.25,1611470449.375,1
6.0,-114.10166666666667,0.485745,32.84,2163604.2,1611470449.55,1
6.0,-98.77727272727272,,,2154856.0,1611470449.725,1
6.0,-12.316363636363635,0.484464,32.84,2158810.75,1611470449.9,1
6.0,0.12909090909090926,0.484464,32.84,2166893.6,1611470450.075,1
6.0,-47.75727272727273,,,2173827.25,1611470450.25,1
6.0,5.4575,0.483183,32.84,2171513.4,1611470450.425,1
6.0,31.34454545454545,0.480621,32.84,2173431.75,1611470450.6,1
6.0,5.74909090909091,0.483183,32.84,2178458.75,1611470450.775,1
6.0,-53.95727272727272,,,2179566.8,1611470450.95,1
6.0,-15.947272727272725,0.476778,32.84,2162092.75,1611470451.125,1
6.0,-11.092500000000001,0.475498,32.84,2152682.0,1611470451.3,1
6.0,-96.11545454545454,,,2167498.6,1611470451.475,1
6.0,44.15181818181818,0.476778,32.84,2171942.75,1611470451.65,1
6.0,264.1045454545455,0.476778,32.84,2170628.4,1611470451.825,1
6.0,40.12090909090909,,,2173594.75,1611470452.0,1
6.0,-53.689166666666665,0.475498,32.84,2178555.0,1611470452.175,1
6.0,-85.0909090909091,0.472936,32.84,2176277.4,1611470452.35,1
6.0,-30.946363636363632,0.47934,32.84,2171688.75,1611470452.525,1
6.0,2.439090909090909,,,2173108.5,1611470452.7,1
6.0,-16.150000000000002,0.47934,32.84,2178088.0,1611470452.875,1
6.0,-34.340833333333336,0.481902,32.84,2176634.5,1611470453.05,1
6.0,22.80272727272727,,,2172805.4,1611470453.225,1
6.0,1.595454545454546,0.484464,32.81,2175214.5,1611470453.4,1
6.0,-59.73,0.485745,32.81,2175215.0,1611470453.575,1
6.0,-59.88727272727272,,,2180544.2,1611470453.75,1
6.0,21.381666666666664,0.484464,32.81,2184215.75,1611470453.925,1
6.0,137.63272727272727,0.483183,32.81,2188243.25,1611470454.1,1
6.0,90.70818181818181,0.484464,32.84,2193921.0,1611470454.275,1
6.0,-2.239090909090909,,,2191806.5,1611470454.45,1
6.0,-30.714545454545455,0.480621,32.84,2190844.2,1611470454.625,1
6.0,-69.06166666666667,0.481902,32.84,2196104.5,1611470454.8,1
6.0,-76.71545454545456,,,2201129.25,1611470454.975,1
6.0,22.923636363636366,0.478059,32.84,2197098.4,1611470455.15,1
6.0,14.390000000000002,0.480621,32.84,2197546.75,1611470455.325,1
6.0,-27.40545454545455,,,2200409.0,1611470455.5,1
6.0,-4.9366666666666665,0.476778,32.84,2199318.2,1611470455.675,1
6.0,4.554545454545455,0.484464,32.84,2184098.5,1611470455.85,1
6.0,-63.541818181818186,0.484464,32.84,2173391.4,1611470456.025,1
6.0,-116.32454545454544,,,2182205.5,1611470456.2,1
6.0,256.89181818181817,0.484464,32.81,2184471.0,1611470456.375,1
6.0,205.69416666666666,0.483183,32.81,2183066.4,1611470456.55,1
6.0,-93.99909090909091,,,2185622.75,1611470456.725,1
6.0,-86.58454545454545,0.485745,32.81,2189126.0,1611470456.9,1
6.0,-27.472727272727273,0.487026,32.81,2182581.8,1611470457.075,1
6.0,-44.90090909090909,,,2180954.25,1611470457.25,1
6.0,-36.325,0.485745,32.84,2183234.5,1611470457.425,1
6.0,36.53454545454545,0.487026,32.84,2182414.4,1611470457.6,1
6.0,12.996363636363634,0.489588,32.84,2177178.75,1611470457.775,1
6.0,-40.39181818181818,,,2178672.2,1611470457.95,1
6.0,32.63090909090909,0.485745,32.84,2182481.5,1611470458.125,1
6.0,26.924166666666668,0.480621,32.83,2177119.5,1611470458.3,1
6.0,-59.16909090909091,,,2177402.6,1611470458.475,1
6.0,-85.77454545454545,0.487026,32.83,2180276.5,1611470458.65,1
6.0,16.676363636363632,0.50624,32.83,2174902.25,1611470458.825,1
6.0,92.4709090909091,,,2169217.2,1611470459.0,1
6.0,230.79999999999998,0.494712,32.83,2170160.5,1611470459.175,1
6.0,-18.828181818181818,0.494712,32.84,2169387.2,1611470459.35,1
6.0,-69.29,0.499835,32.84,2161153.75,1611470459.525,1
6.0,-83.2518181818182,,,2160156.75,1611470459.7,1
6.0,-93.69181818181818,0.501116,32.84,2161027.2,1611470459.875,1
6.0,17.574166666666667,0.499835,32.84,2151531.5,1611470460.05,1
6.0,17.297272727272727,,,2144316.75,1611470460.225,1
6.0,-39.85181818181818,0.494712,32.84,2139282.8,1611470460.4,1
6.0,-13.113636363636363,0.493431,32.84,2120584.25,1611470460.575,1
6.0,9.294545454545455,,,2089499.25,1611470460.75,1
6.0,-65.59583333333333,0.49215,32.84,2065851.6,1611470460.925,1
6.0,-127.32272727272729,0.493431,32.84,2058095.0,1611470461.1,1
6.0,106.53272727272729,0.494712,32.83,2060661.4,1611470461.275,1
6.0,315.2872727272727,,,2073585.0,1611470461.45,1
6.0,195.19727272727275,0.49215,32.83,2087140.5,1611470461.625,1
6.0,-111.51333333333334,0.493431,32.83,2095696.4,1611470461.8,1
6.0,-84.36454545454545,,,2090242.0,1611470461.975,1
6.0,-55.446363636363635,0.490869,32.83,2090975.0,1611470462.15,1
6.0,-68.77181818181818,0.489588,32.84,2096839.8,1611470462.325,1
6.0,-38.15909090909091,,,2096444.25,1611470462.5,1
6.0,6.1325,0.487026,32.84,2090733.0,1611470462.675,1
6.0,-17.71090909090909,0.484464,32.84,2092251.75,1611470462.85,1
6.0,-31.174545454545456,0.489588,32.84,2097697.25,1611470463.025,1
6.0,39.79545454545455,,,2092798.8,1611470463.2,1
6.0,19.595454545454544,0.494712,32.84,2091958.0,1611470463.375,1
6.0,-56.112500000000004,0.495993,32.84,2096733.5,1611470463.55,1
6.0,16.67,,,2102036.2,1611470463.725,1
6.0,135.2118181818182,0.503678,32.84,2096681.5,1611470463.9,1
6.0,-51.28,0.507521,32.84,2098029.2,1611470464.075,1
6.0,-92.63090909090909,,,2104016.25,1611470464.25,1
6.0,12.021666666666667,0.515207,32.84,2104420.0,1611470464.425,1
6.0,17.08818181818182,0.516488,32.84,2101512.8,1611470464.6,1
6.0,-52.75727272727272,0.517769,32.84,2104951.25,1611470464.775,1
6.0,10.396363636363635,,,2109559.0,1611470464.95,1
6.0,28.66545454545454,0.51905,32.84,2104283.6,1611470465.125,1
6.0,-8.230833333333335,0.511364,32.84,2105272.25,1611470465.3,1
6.0,-16.180909090909093,,,2103325.0,1611470465.475,1
6.0,37.517272727272726,0.511364,32.84,2082698.0,1611470465.65,1
6.0,5.926363636363636,0.507521,32.84,2083681.5,1611470465.825,1
6.0,-58.62909090909091,,,2098488.0,1611470466.0,1
6.0,-28.89166666666667,0.502397,32.84,2106797.5,1611470466.175,1
6.0,-27.39363636363636,0.501116,32.84,2102218.5,1611470466.35,1
6.0,64.51636363636364,0.501116,32.84,2104387.6,1611470466.525,1
6.0,94.00454545454545,,,2110431.5,1611470466.7,1
6.0,61.81181818181819,0.501116,32.84,2109979.0,1611470466.875,1
6.0,-24.996666666666666,0.50624,32.84,2108377.75,1611470467.05,1
6.0,-48.93545454545453,,,2112370.25,1611470467.225,1
6.0,6.809090909090909,0.502397,32.83,2116688.8,1611470467.4,1
6.0,0.618181818181818,0.50624,32.83,2113192.75,1611470467.575,1
6.0,-30.014545454545456,,,2115895.5,1611470467.75,1
6.0,29.280833333333334,0.50624,32.83,2121584.6,1611470467.925,1
6.0,-12.151818181818184,0.502397,32.83,2119542.5,1611470468.1,1
6.0,-46.8890909090909,0.499835,32.84,2118394.6,1611470468.275,1
6.0,20.849999999999998,,,2108785.0,1611470468.45,1
6.0,15.110909090909091,0.501116,32.84,2098800.25,1611470468.625,1
6.0,-32.70083333333333,0.507521,32.84,2090486.6,1611470468.8,1
6.0,4.867272727272728,,,2108837.5,1611470468.975,1
6.0,25.75181818181818,0.511364,32.84,2128681.25,1611470469.15,1
6.0,-12.398181818181818,0.512645,32.83,2130337.0,1611470469.325,1
6.0,-22.40272727272728,,,2135372.0,1611470469.5,1
6.0,35.76083333333333,0.516488,32.83,2141489.4,1611470469.675,1
6.0,6.998181818181817,0.513926,32.83,2139866.0,1611470469.85,1
6.0,-47.49545454545455,0.512645,32.83,2142474.5,1611470470.025,1
6.0,18.476363636363633,,,2147823.2,1611470470.2,1
6.0,27.13090909090909,0.513926,32.84,2146499.25,1611470470.375,1
6.0,-10.884166666666667,0.512645,32.84,2146045.0,1611470470.55,1
6.0,-38.38545454545454,,,2149967.2,1611470470.725,1
6.0,26.612727272727273,0.512645,32.84,2150280.75,1611470470.9,1
6.0,-1.8890909090909092,0.507521,32.84,2147205.25,1611470471.075,1
6.0,-67.48727272727272,,,2152540.6,1611470471.25,1
6.0,-59.333333333333336,0.50624,32.84,2157354.5,1611470471.425,1
6.0,-28.736363636363638,0.504959,32.84,2157732.6,1611470471.6,1
6.0,98.98181818181818,0.513926,32.84,2160101.75,1611470471.775,1
6.0,37.31636363636364,,,2163943.25,1611470471.95,1
6.0,103.62000000000002,0.507521,32.84,2161070.2,1611470472.125,1
6.0,103.3975,0.503678,32.83,2156912.25,1611470472.3,1
6.0,65.92,,,2158500.75,1611470472.475,1
6.0,-43.86818181818182,0.497274,32.83,2161228.4,1611470472.65,1
6.0,-61.83272727272727,0.499835,32.83,2154844.5,1611470472.825,1
6.0,-25.271818181818183,,,2154436.8,1611470473.0,1
6.0,-43.027499999999996,0.498555,32.83,2157736.0,1611470473.175,1
6.0,-75.26272727272728,0.501116,32.84,2155356.0,1611470473.35,1
6.0,6.4390909090909085,0.497274,32.84,2151404.0,1611470473.525,1
6.0,38.234545454545454,,,2152989.25,1611470473.7,1
6.0,10.373636363636363,0.498555,32.84,2154441.25,1611470473.875,1
6.0,-53.324999999999996,0.498555,32.84,2139951.2,1611470474.05,1
6.0,-15.40363636363636,,,2133199.0,1611470474.225,1
6.0,20.39636363636364,0.501116,32.84,2138087.6,1611470474.4,1
6.0,3.5872727272727274,0.501116,32.84,2146485.25,1611470474.575,1
6.0,-39.74727272727273,,,2144073.0,1611470474.75,1
6.0,17.08666666666667,0.499835,32.84,2142767.6,1611470474.925,1
6.0,18.501818181818184,0.503678,32.84,2144815.0,1611470475.1,1
6.0,-14.37,0.503678,32.84,2149259.0,1611470475.275,1
6.0,-39.86909090909091,,,2144545.8,1611470475.45,1
6.0,24.712727272727275,0.50624,32.84,2138104.75,1611470475.625,1
6.0,5.868333333333333,0.503678,32.84,2138422.5,1611470475.8,1
6.0,-47.107272727272736,,,2142910.6,1611470475.975,1
6.0,-11.894545454545458,0.501116,32.84,2143502.5,1611470476.15,1
6.0,36.10090909090909,0.503678,32.84,2136983.0,1611470476.325,1
6.0,5.2690909090909095,,,2136681.25,1611470476.5,1
6.0,-47.48166666666666,0.502397,32.84,2136862.5,1611470476.675,1
6.0,47.058181818181815,0.504959,32.84,2133647.8,1611470476.85,1
6.0,106.07636363636362,0.504959,32.84,2139816.75,1611470477.025,1
6.0,48.443636363636365,,,2149650.75,1611470477.2,1
6.0,-110.5190909090909,0.501116,32.84,2166117.6,1611470477.375,1
6.0,-17.407500000000002,0.503678,32.84,2165796.5,1611470477.55,1
6.0,17.667272727272728,,,2164892.0,1611470477.725,1
6.0,-30.480909090909094,0.50624,32.84,2167296.2,1611470477.9,1
6.0,5.113636363636365,0.507521,32.84,2167819.25,1611470478.075,1
6.0,27.745454545454546,,,2160485.0,1611470478.25,1
6.0,-7.321666666666668,0.508802,32.87,2160769.0,1611470478.425,1
6.0,-58.11727272727273,0.507521,32.87,2164592.5,1611470478.6,1
6.0,13.47272727272727,0.50624,32.87,2158892.2,1611470478.775,1
6.0,-11.266363636363637,,,2153971.75,1611470478.95,1
6.0,-74.94090909090909,0.504959,32.87,2154969.5,1611470479.125,1
6.0,-54.74916666666667,0.504959,32.83,2157730.8,1611470479.3,1
6.0,272.3172727272727,,,2149014.25,1611470479.475,1
6.0,151.04181818181817,0.502397,32.83,2146084.0,1611470479.65,1
6.0,-49.025454545454544,0.502397,32.83,2147114.2,1611470479.825,1
6.0,-94.57636363636362,,,2144685.5,1611470480.0,1
6.0,-39.050000000000004,0.504959,32.83,2137315.6,1611470480.175,1
6.0,0.15636363636363643,0.503678,32.84,2137075.75,1611470480.35,1
6.0,-12.180909090909092,0.504959,32.84,2139831.0,1611470480.525,1
6.0,-48.598181818181814,,,2131495.6,1611470480.7,1
6.0,15.38,0.503678,32.84,2125499.5,1611470480.875,1
6.0,26.44666666666667,0.507521,32.84,2126368.4,1611470481.05,1
6.0,9.36181818181818,,,2128792.25,1611470481.225,1
6.0,-28.99818181818182,0.512645,32.83,2118489.4,1611470481.4,1
6.0,27.50181818181818,0.522892,32.83,2114935.75,1611470481.575,1
6.0,16.272727272727273,,,2116707.5,1611470481.75,1
6.0,-38.43,0.530578,32.83,2121524.0,1611470481.925,1
6.0,-43.485454545454544,0.538264,32.83,2114164.25,1611470482.1,1
6.0,12.932727272727272,0.54595,32.84,2110570.75,1611470482.275,1
6.0,10.460909090909091,,,2113498.4,1611470482.45,1
6.0,-26.401818181818182,0.549792,32.84,2119639.75,1611470482.625,1
6.0,-15.381666666666666,0.552354,32.84,2114427.4,1611470482.8,1
6.0,43.192727272727275,,,2110503.5,1611470482.975,1
6.0,25.138181818181817,0.548511,32.84,2112143.25,1611470483.15,1
6.0,-22.476363636363637,0.54595,32.84,2116601.4,1611470483.325,1
6.0,-37.76545454545454,,,2111194.25,1611470483.5,1
6.0,28.88,0.542107,32.84,2109373.5,1611470483.675,1
6.0,12.32181818181818,0.536983,32.84,2103782.8,1611470483.85,1
6.0,-35.97636363636364,0.530578,32.84,2090784.75,1611470484.025,1
6.0,-61.78636363636363,,,2063384.0,1611470484.2,1
6.0,-36.449999999999996,0.525454,32.84,2044484.75,1611470484.375,1
6.0,-25.18416666666667,0.522892,32.84,2060698.0,1611470484.55,1
6.0,117.95727272727272,,,2082343.0,1611470484.725,1
6.0,132.0,0.524173,32.84,2089408.5,1611470484.9,1
6.0,55.11818181818182,0.522892,32.84,2097215.0,1611470485.075,1
6.0,-29.66727272727273,,,2105824.6,1611470485.25,1
6.0,-76.125,0.51905,32.84,2111934.25,1611470485.425,1
6.0,6.22,0.517769,32.84,2107244.4,1611470485.6,1
6.0,1.95,0.516488,32.84,2109625.0,1611470485.775,1
6.0,-34.269090909090906,,,2116139.0,1611470485.95,1
6.0,-34.696363636363635,0.516488,32.84,2121444.4,1611470486.125,1
6.0,31.424166666666665,0.51905,32.84,2117850.0,1611470486.3,1
6.0,11.415454545454544,,,2112831.75,1611470486.475,1
6.0,-39.803636363636365,0.51905,32.84,2112490.6,1611470486.65,1
6.0,8.719999999999999,0.520331,32.84,2117735.25,1611470486.825,1
6.0,35.408181818181816,,,2125296.0,1611470487.0,1
6.0,4.470833333333334,0.520331,32.84,2136226.5,1611470487.175,1
6.0,-50.67909090909091,0.522892,32.84,2141839.75,1611470487.35,1
6.0,17.13,0.51905,32.84,2138023.0,1611470487.525,1
6.0,21.560909090909092,,,2137067.0,1611470487.7,1
6.0,-7.744545454545454,0.517769,32.84,2139732.0,1611470487.875,1
6.0,-28.838333333333335,0.516488,32.84,2141949.6,1611470488.05,1
6.0,27.76090909090909,,,2135253.75,1611470488.225,1
6.0,7.988181818181817,0.517769,32.84,2134669.0,1611470488.4,1
6.0,-37.73363636363636,0.51905,32.84,2137352.4,1611470488.575,1
6.0,7.180909090909091,,,2134005.0,1611470488.75,1
6.0,30.59166666666667,0.516488,32.84,2132329.2,1611470488.925,1
6.0,-7.803636363636364,0.516488,32.84,2141336.5,1611470489.1,1
6.0,-51.58636363636364,0.516488,32.87,2148399.75,1611470489.275,1
6.0,29.25909090909091,,,2146643.8,1611470489.45,1
6.0,27.50818181818182,0.512645,32.87,2144808.25,1611470489.625,1
6.0,-16.345,0.515207,32.87,2147019.75,1611470489.8,1
6.0,-40.06818181818182,,,2150124.2,1611470489.975,1
6.0,26.14909090909091,0.508802,32.87,2145216.0,1611470490.15,1
6.0,-6.6945454545454535,0.516488,32.84,2145449.2,1611470490.325,1
6.0,-82.80727272727272,,,2149554.25,1611470490.5,1
6.0,-144.28083333333333,0.508802,32.84,2149472.25,1611470490.675,1
6.0,132.71272727272728,0.508802,32.84,2149427.2,1611470490.85,1
6.0,392.9045454545454,0.513926,32.84,2155094.25,1611470491.025,1
6.0,28.142727272727267,,,2158607.5,1611470491.2,1
6.0,-109.79636363636364,0.510083,32.87,2152910.2,1611470491.375,1
6.0,-64.47916666666667,0.510083,32.87,2149296.5,1611470491.55,1
6.0,-36.370000000000005,,,2150186.2,1611470491.725,1
6.0,-55.18181818181818,0.510083,32.87,2151734.75,1611470491.9,1
6.0,1.7799999999999998,0.511364,32.87,2144275.5,1611470492.075,1
6.0,22.66909090909091,,,2142875.2,1611470492.25,1
6.0,-8.2925,0.510083,32.87,2145366.0,1611470492.425,1
6.0,-42.89818181818182,0.513926,32.87,2147815.25,1611470492.6,1
6.0,23.90636363636364,0.511364,32.87,2140953.6,1611470492.775,1
6.0,18.06,,,2140553.75,1611470492.95,1
6.0,-17.434545454545454,0.510083,32.87,2143975.0,1611470493.125,1
6.0,-19.183333333333334,0.508802,32.87,2145230.6,1611470493.3,1
6.0,29.90363636363636,,,2140198.5,1611470493.475,1
6.0,10.704545454545455,0.507521,32.87,2141165.75,1611470493.65,1
6.0,-35.03909090909091,0.507521,32.87,2145307.2,1611470493.825,1
6.0,-1.0427272727272738,,,2142932.5,1611470494.0,1
6.0,25.864166666666666,0.504959,32.87,2141708.8,1611470494.175,1
6.0,-3.828181818181818,0.502397,32.87,2144219.25,1611470494.35,1
6.0,-38.64636363636364,0.502397,32.87,2148029.0,1611470494.525,1
6.0,25.978181818181817,,,2141668.2,1611470494.7,1
6.0,11.202727272727273,0.502397,32.87,2138981.25,1611470494.875,1
6.0,-27.231666666666666,0.502397,32.87,2141802.5,1611470495.05,1
6.0,8.153636363636362,,,2147487.8,1611470495.225,1
6.0,22.16,0.501116,32.84,2148868.0,1611470495.4,1
6.0,-8.223636363636365,0.499835,32.84,2154463.4,1611470495.575,1
6.0,-41.849090909090904,,,2161879.75,1611470495.75,1
6.0,32.274166666666666,0.498555,32.84,2161956.5,1611470495.925,1
6.0,15.782727272727273,0.502397,32.84,2158035.2,1611470496.1,1
6.0,-32.222727272727276,0.501116,32.84,2160313.75,1611470496.275,1
6.0,-15.697272727272725,,,2164670.25,1611470496.45,1
6.0,36.03454545454545,0.501116,32.84,2159747.6,1611470496.625,1
6.0,10.6625,0.501116,32.84,2157829.25,1611470496.8,1
6.0,-41.68727272727273,,,2159619.0,1611470496.975,1
6.0,17.868181818181817,0.501116,32.84,2156402.0,1611470497.15,1
6.0,26.16,0.501116,32.84,2152989.0,1611470497.325,1
6.0,-1.2745454545454544,,,2154885.6,1611470497.5,1
6.0,-40.705000000000005,0.501116,32.84,2152260.25,1611470497.675,1
6.0,27.378181818181815,0.501116,32.84,2150521.25,1611470497.85,1
6.0,19.064545454545456,0.502397,32.84,2155645.8,1611470498.025,1
6.0,-19.153636363636362,,,2160993.0,1611470498.2,1
6.0,-5.4018181818181805,0.502397,32.84,2160252.2,1611470498.375,1
6.0,24.356666666666666,0.504959,32.84,2152211.25,1611470498.55,1
6.0,-3.145454545454545,,,2151822.5,1611470498.725,1
6.0,-46.15363636363636,0.504959,32.84,2154446.4,1611470498.9,1
6.0,21.48818181818182,0.504959,32.84,2149320.25,1611470499.075,1
6.0,24.126363636363635,,,2143617.75,1611470499.25,1
6.0,-18.428333333333335,0.503678,32.87,2143759.0,1611470499.425,1
6.0,-24.479999999999997,0.503678,32.87,2146940.5,1611470499.6,1
6.0,33.24363636363636,0.50624,32.87,2139680.6,1611470499.775,1
6.0,13.279090909090911,,,2137656.75,1611470499.95,1
6.0,-35.11636363636364,0.507521,32.87,2143240.0,1611470500.125,1
6.0,5.765833333333334,0.50624,32.84,2149699.4,1611470500.3,1
6.0,9.646363636363636,,,2145579.0,1611470500.475,1
6.0,-39.12909090909091,0.508802,32.84,2145999.0,1611470500.65,1
6.0,-6.934545454545455,0.507521,32.84,2148864.0,1611470500.825,1
6.0,75.47818181818182,,,2142739.25,1611470501.0,1
6.0,29.078333333333333,0.503678,32.84,2137788.8,1611470501.175,1
6.0,-37.28090909090909,0.504959,32.84,2138904.25,1611470501.35,1
6.0,-11.116363636363637,0.503678,32.84,2140636.0,1611470501.525,1
6.0,19.21090909090909,,,2132613.8,1611470501.7,1
6.0,-10.011818181818182,0.499835,32.84,2132047.5,1611470501.875,1
6.0,-44.826666666666675,0.498555,32.84,2135240.25,1611470502.05,1
6.0,25.284545454545455,,,2132426.4,1611470502.225,1
6.0,8.527272727272726,0.498555,32.87,2127479.0,1611470502.4,1
6.0,-31.89363636363636,0.503678,32.87,2129503.0,1611470502.575,1
6.0,-3.476363636363637,,,2133759.5,1611470502.75,1
6.0,28.027500000000003,0.504959,32.87,2127412.75,1611470502.925,1
6.0,-8.97909090909091,0.504959,32.87,2125752.6,1611470503.1,1
6.0,-31.53909090909091,0.503678,32.84,2128140.5,1611470503.275,1
6.0,83.40272727272726,,,2127817.0,1611470503.45,1
6.0,28.545454545454547,0.504959,32.84,2121493.4,1611470503.625,1
6.0,-29.72,0.504959,32.84,2122014.0,1611470503.8,1
6.0,-41.92363636363636,,,2124804.4,1611470503.975,1
6.0,25.88090909090909,0.504959,32.84,2117073.5,1611470504.15,1
6.0,11.541818181818181,0.502397,32.87,2114441.5,1611470504.325,1
6.0,-31.21090909090909,,,2116767.4,1611470504.5,1
6.0,-0.06916666666666593,0.498555,32.87,2114328.5,1611470504.675,1
6.0,20.02181818181818,0.498555,32.87,2106855.0,1611470504.85,1
6.0,-5.010909090909092,0.499835,32.87,2104852.0,1611470505.025,1
6.0,-29.787272727272725,,,2110181.0,1611470505.2,1
6.0,29.099090909090908,0.501116,32.89,2108245.0,1611470505.375,1
6.0,9.665833333333333,0.497274,32.89,2107100.25,1611470505.55,1
6.0,-37.64272727272728,,,2110821.75,1611470505.725,1
6.0,-2.225454545454545,0.494712,32.89,2115673.6,1611470505.9,1
6.0,30.364545454545453,0.49215,32.89,2109321.0,1611470506.075,1
6.0,2.0445454545454544,,,2109161.8,1611470506.25,1
6.0,-42.1075,0.494712,32.87,2112498.25,1611470506.425,1
6.0,27.212727272727275,0.493431,32.87,2110549.75,1611470506.6,1
6.0,24.46,0.497274,32.87,2107285.2,1611470506.775,1
6.0,-14.560909090909092,,,2110039.25,1611470506.95,1
6.0,-42.39454545454546,0.499835,32.87,2113765.0,1611470507.125,1
6.0,33.350833333333334,0.499835,32.87,2106883.0,1611470507.3,1
6.0,15.984545454545456,,,2104480.5,1611470507.475,1
6.0,-28.628181818181815,0.507521,32.87,2105267.0,1611470507.65,1
6.0,-3.0454545454545454,0.516488,32.87,2094768.0,1611470507.825,1
6.0,27.384545454545457,,,2092011.75,1611470508.0,1
6.0,-2.3658333333333332,0.522892,32.87,2102653.2,1611470508.175,1
6.0,-25.90181818181818,0.531859,32.84,2117457.5,1611470508.35,1
6.0,27.231818181818184,0.53314,32.84,2114860.75,1611470508.525,1
6.0,9.23909090909091,,,2110475.4,1611470508.7,1
6.0,-35.72636363636364,0.539545,32.84,2111138.0,1611470508.875,1
6.0,-0.23749999999999982,0.538264,32.84,2114229.0,1611470509.05,1
6.0,19.85090909090909,,,2107183.0,1611470509.225,1
6.0,-7.624545454545454,0.53314,32.87,2107220.5,1611470509.4,1
6.0,-36.31636363636364,0.531859,32.87,2111853.2,1611470509.575,1
6.0,31.644545454545458,,,2112562.5,1611470509.75,1
6.0,17.804166666666664,0.528016,32.87,2111846.5,1611470509.925,1
6.0,-11.819090909090908,0.526735,32.87,2120560.0,1611470510.1,1
6.0,2.6363636363636362,0.524173,32.87,2130659.5,1611470510.275,1
6.0,11.167272727272728,,,2126921.75,1611470510.45,1
6.0,-6.792727272727273,0.51905,32.87,2126619.2,1611470510.625,1
6.0,-36.92666666666667,0.522892,32.87,2130484.5,1611470510.8,1
6.0,33.39090909090908,,,2128013.6,1611470510.975,1
6.0,12.86909090909091,0.521612,32.87,2123401.25,1611470511.15,1
6.0,-22.181818181818183,0.520331,32.87,2125260.75,1611470511.325,1
6.0,7.705454545454544,,,2129131.0,1611470511.5,1
6.0,-1.0916666666666661,0.515207,32.87,2123891.75,1611470511.675,1
6.0,-47.03454545454545,0.516488,32.87,2124030.75,1611470511.85,1
6.0,-68.76545454545455,0.515207,32.87,2127998.4,1611470512.025,1
6.0,35.557272727272725,,,2126792.0,1611470512.2,1
6.0,48.3,0.516488,32.84,2123821.0,1611470512.375,1
6.0,33.84666666666667,0.512645,32.84,2126980.0,1611470512.55,1
6.0,75.33818181818181,,,2131216.5,1611470512.725,1
6.0,12.71909090909091,0.511364,32.84,2129368.0,1611470512.9,1
6.0,-58.15909090909091,0.511364,32.84,2130742.25,1611470513.075,1
6.0,-23.055454545454555,,,2134207.0,1611470513.25,1
6.0,6.229166666666667,0.511364,32.87,2134033.0,1611470513.425,1
6.0,-21.86909090909091,0.508802,32.87,2131592.75,1611470513.6,1
6.0,-35.27454545454545,0.510083,32.87,2133546.8,1611470513.775,1
6.0,29.12090909090909,,,2134160.25,1611470513.95,1
6.0,20.246363636363636,0.512645,32.87,2130129.5,1611470514.125,1
6.0,-16.1,0.510083,32.87,2132264.6,1611470514.3,1
6.0,-19.58454545454545,,,2136118.5,1611470514.475,1
6.0,35.54454545454546,0.515207,32.87,2131083.25,1611470514.65,1
6.0,16.29181818181818,0.510083,32.87,2130029.6,1611470514.825,1
6.0,-28.94181818181818,,,2133069.5,1611470515.0,1
6.0,-10.1775,0.508802,32.87,2130858.8,1611470515.175,1
6.0,17.95909090909091,0.503678,32.87,2127087.75,1611470515.35,1
6.0,0.5390909090909092,0.503678,32.87,2128810.25,1611470515.525,1
6.0,-35.800909090909094,,,2131944.2,1611470515.7,1
6.0,23.49818181818182,0.502397,32.87,2125940.0,1611470515.875,1
6.0,14.891666666666666,0.50624,32.87,2125274.75,1611470516.05,1
6.0,-22.582727272727276,,,2128825.0,1611470516.225,1
6.0,-15.31,0.503678,32.84,2128887.25,1611470516.4,1
6.0,27.629090909090905,0.50624,32.84,2113896.25,1611470516.575,1
6.0,0.1454545454545455,,,2121563.6,1611470516.75,1
6.0,-53.85333333333333,0.507521,32.84,2134509.0,1611470516.925,1
6.0,1.778181818181818,0.507521,32.84,2142006.6,1611470517.1,1
6.0,-65.13909090909091,0.50624,32.84,2139298.5,1611470517.275,1
6.0,25.5,,,2140678.75,1611470517.45,1
6.0,96.92636363636365,0.507521,32.84,2144271.2,1611470517.625,1
6.0,135.8725,0.507521,32.84,2139771.0,1611470517.8,1
6.0,-15.159090909090908,,,2139248.75,1611470517.975,1
6.0,-100.74727272727273,0.510083,32.84,2142224.2,1611470518.15,1
6.0,-13.086363636363636,0.511364,32.84,2143110.25,1611470518.325,1
6.0,2.416363636363637,,,2136287.25,1611470518.5,1
6.0,-36.751666666666665,0.510083,32.84,2136043.0,1611470518.675,1
6.0,-3.607272727272728,0.508802,32.84,2138637.25,1611470518.85,1
6.0,19.01181818181818,0.510083,32.84,2134073.4,1611470519.025,1
6.0,0.6818181818181817,,,2130747.25,1611470519.2,1
6.0,-29.80636363636364,0.508802,32.84,2130974.0,1611470519.375,1
6.0,23.605,0.507521,32.84,2132275.2,1611470519.55,1
6.0,15.397272727272728,,,2129067.5,1611470519.725,1
6.0,15.58,0.510083,32.84,2136236.5,1611470519.9,1
6.0,4.705454545454544,0.510083,32.84,2143196.4,1611470520.075,1
6.0,-1.731818181818182,,,2138918.75,1611470520.25,1
6.0,-26.72333333333333,0.511364,32.87,2139092.0,1611470520.425,1
6.0,-19.529999999999998,0.511364,32.87,2143309.25,1611470520.6,1
6.0,25.675454545454542,0.507521,32.87,2143961.25,1611470520.775,1
6.0,-1.5945454545454545,,,2142688.4,1611470520.95,1
6.0,-43.156363636363636,0.50624,32.87,2146955.25,1611470521.125,1
6.0,26.040000000000003,0.507521,32.84,2150986.75,1611470521.3,1
6.0,11.747272727272728,,,2145601.4,1611470521.475,1
6.0,-25.74818181818182,0.507521,32.84,2144703.0,1611470521.65,1
6.0,16.735454545454548,0.502397,32.84,2148058.8,1611470521.825,1
6.0,30.35545454545454,,,2144942.25,1611470522.0,1
6.0,-1.2324999999999997,0.501116,32.84,2142308.25,1611470522.175,1
6.0,-38.21,0.499835,32.84,2144746.6,1611470522.35,1
6.0,28.15090909090909,0.499835,32.84,2145288.0,1611470522.525,1
6.0,16.728181818181817,,,2138257.25,1611470522.7,1
6.0,-22.354545454545455,0.504959,32.84,2137787.2,1611470522.875,1
6.0,-16.825833333333335,0.503678,32.84,2140165.0,1611470523.05,1
6.0,18.94818181818182,,,2132792.8,1611470523.225,1
6.0,2.901818181818182,0.503678,32.84,2129547.75,1611470523.4,1
6.0,1.1481818181818184,0.504959,32.84,2131207.0,1611470523.575,1
6.0,6.053636363636364,,,2129738.6,1611470523.75,1
6.0,-4.253333333333333,0.502397,32.84,2123444.75,1611470523.925,1
6.0,-39.68545454545455,0.503678,32.84,2124589.25,1611470524.1,1
6.0,-4.480909090909091,0.503678,32.87,2128312.0,1611470524.275,1
6.0,32.71,,,2123041.25,1611470524.45,1
6.0,5.333636363636363,0.50624,32.87,2122268.0,1611470524.625,1
6.0,-40.6975,0.50624,32.87,2126099.0,1611470524.8,1
6.0,27.860909090909093,,,2128160.75,1611470524.975,1
6.0,39.62,0.507521,32.87,2123984.6,1611470525.15,1
6.0,23.463636363636365,0.511364,32.87,2126230.75,1611470525.325,1
6.0,-55.64454545454546,,,2130646.75,1611470525.5,1
6.0,22.110833333333332,0.512645,32.87,2126651.2,1611470525.675,1
6.0,16.394545454545455,0.508802,32.87,2126723.25,1611470525.85,1
6.0,-22.99090909090909,0.511364,32.87,2131089.0,1611470526.025,1
6.0,-27.51181818181818,,,2130619.0,1611470526.2,1
6.0,28.59636363636363,0.516488,32.89,2126285.0,1611470526.375,1
6.0,4.7941666666666665,0.511364,32.89,2128660.4,1611470526.55,1
6.0,-52.10363636363636,,,2133404.25,1611470526.725,1
6.0,-48.55272727272727,0.511364,32.89,2128705.0,1611470526.9,1
6.0,-78.36818181818181,0.511364,32.89,2126915.4,1611470527.075,1
6.0,-51.56363636363637,,,2130290.25,1611470527.25,1
6.0,212.135,0.512645,32.84,2133315.8,1611470527.425,1
6.0,275.32454545454544,0.510083,32.84,2127821.25,1611470527.6,1
6.0,-39.25545454545454,0.510083,32.84,2128700.75,1611470527.775,1
6.0,-106.77181818181818,,,2133065.8,1611470527.95,1
6.0,-103.26545454545455,0.511364,32.84,2136155.0,1611470528.125,1
6.0,-7.398333333333333,0.510083,32.87,2131245.5,1611470528.3,1
6.0,-2.986363636363636,,,2132657.8,1611470528.475,1
6.0,-44.58090909090909,0.507521,32.87,2137369.5,1611470528.65,1
6.0,4.233636363636363,0.510083,32.87,2138004.75,1611470528.825,1
6.0,23.85090909090909,,,2135449.4,1611470529.0,1
6.0,-4.2124999999999995,0.508802,32.87,2137986.25,1611470529.175,1
6.0,-22.974545454545453,0.512645,32.87,2142913.2,1611470529.35,1
6.0,56.14090909090908,0.508802,32.87,2139539.75,1611470529.525,1
6.0,-14.997272727272728,,,2140249.75,1611470529.7,1
6.0,-50.28636363636363,0.508802,32.87,2144473.4,1611470529.875,1
6.0,-18.836666666666666,0.508802,32.87,2147347.75,1611470530.05,1
6.0,17.135454545454547,,,2141565.5,1611470530.225,1
6.0,-3.7245454545454546,0.507521,32.84,2142153.4,1611470530.4,1
6.0,-21.85636363636364,0.507521,32.84,2145812.5,1611470530.575,1
6.0,26.60363636363636,,,2143498.0,1611470530.75,1
6.0,-5.468333333333334,0.504959,32.84,2139872.25,1611470530.925,1
6.0,-61.597272727272724,0.510083,32.84,2142107.75,1611470531.1,1
6.0,8.16090909090909,0.508802,32.84,2145690.2,1611470531.275,1
6.0,38.56090909090909,,,2140409.75,1611470531.45,1
6.0,7.035454545454544,0.513926,32.84,2135043.5,1611470531.625,1
6.0,-38.45166666666666,0.511364,32.84,2125106.2,1611470531.8,1
6.0,19.846363636363638,,,2127635.5,1611470531.975,1
6.0,-11.728181818181817,0.516488,32.84,2130514.75,1611470532.15,1
6.0,17.024545454545454,0.510083,32.84,2141036.8,1611470532.325,1
6.0,36.27,,,2154804.75,1611470532.5,1
6.0,98.61000000000001,0.511364,32.84,2163515.8,1611470532.675,1
6.0,-14.041818181818183,0.510083,32.84,2167756.5,1611470532.85,1
6.0,-59.38818181818181,0.510083,32.84,2171040.75,1611470533.025,1
6.0,4.237272727272728,,,2167331.2,1611470533.2,1
6.0,10.693636363636363,0.504959,32.87,2160891.25,1611470533.375,1
6.0,-16.49083333333333,0.502397,32.87,2160877.25,1611470533.55,1
6.0,-19.62454545454545,,,2162573.0,1611470533.725,1
6.0,27.026363636363634,0.502397,32.87,2155106.0,1611470533.9,1
6.0,3.272727272727273,0.504959,32.87,2152505.0,1611470534.075,1
6.0,-50.26636363636364,,,2154214.5,1611470534.25,1
6.0,-12.403333333333334,0.499835,32.89,2154015.0,1611470534.425,1
6.0,-20.09272727272727,0.503678,32.89,2146826.4,1611470534.6,1
6.0,-74.06,0.503678,32.89,2146726.0,1611470534.775,1
6.0,-8.906363636363634,,,2149654.0,1611470534.95,1
6.0,127.06363636363636,0.512645,32.89,2145587.2,1611470535.125,1
6.0,87.93916666666667,0.511364,32.84,2141677.0,1611470535.3,1
6.0,-7.20909090909091,,,2143217.0,1611470535.475,1
6.0,-18.49818181818182,0.512645,32.84,2144441.25,1611470535.65,1
6.0,59.55272727272727,0.512645,32.84,2138468.75,1611470535.825,1
6.0,48.42545454545455,,,2138678.2,1611470536.0,1
6.0,-42.16333333333333,0.515207,32.84,2141861.75,1611470536.175,1
6.0,-68.09727272727272,0.511364,32.87,2138130.75,1611470536.35,1
6.0,11.846363636363636,0.510083,32.87,2132190.0,1611470536.525,1
6.0,5.993636363636364,,,2132853.0,1611470536.7,1
6.0,-23.008181818181818,0.510083,32.87,2135091.0,1611470536.875,1
6.0,-36.59583333333333,0.507521,32.87,2127839.25,1611470537.05,1
6.0,19.905454545454546,,,2126007.0,1611470537.225,1
6.0,5.072727272727274,0.508802,32.87,2119705.4,1611470537.4,1
6.0,-34.43181818181818,0.502397,32.87,2111969.25,1611470537.575,1
6.0,-12.097272727272726,,,2110321.5,1611470537.75,1
6.0,12.44,0.499835,32.87,2116482.0,1611470537.925,1
6.0,20.468181818181815,0.502397,32.87,2137017.25,1611470538.1,1
6.0,-47.220000000000006,0.501116,32.84,2149250.2,1611470538.275,1
6.0,15.309090909090912,,,2145091.0,1611470538.45,1
6.0,14.65,0.501116,32.84,2145136.0,1611470538.625,1
6.0,-22.36916666666666,0.501116,32.84,2148326.6,1611470538.8,1
6.0,-15.149090909090908,,,2151463.75,1611470538.975,1
6.0,28.10818181818182,0.501116,32.84,2145856.25,1611470539.15,1
6.0,3.911818181818182,0.503678,32.87,2146140.6,1611470539.325,1
6.0,-42.528181818181814,,,2148828.0,1611470539.5,1
6.0,13.060833333333333,0.503678,32.87,2147787.0,1611470539.675,1
6.0,23.847272727272728,0.504959,32.87,2145038.5,1611470539.85,1
6.0,10.509090909090908,0.503678,32.87,2147523.0,1611470540.025,1
6.0,-35.81636363636364,,,2151407.8,1611470540.2,1
6.0,18.51090909090909,0.499835,32.87,2145914.75,1611470540.375,1
6.0,6.8625,0.501116,32.87,2144536.75,1611470540.55,1
6.0,-29.39363636363636,,,2147063.4,1611470540.725,1
6.0,22.05181818181818,0.502397,32.87,2147331.75,1611470540.9,1
6.0,10.013636363636364,0.501116,32.87,2140721.8,1611470541.075,1
6.0,-30.099090909090908,,,2140785.5,1611470541.25,1
6.0,-12.640833333333333,0.502397,32.84,2143594.4,1611470541.425,1
6.0,36.41272727272727,0.499835,32.84,2138238.75,1611470541.6,1
6.0,12.665454545454544,0.499835,32.84,2136942.4,1611470541.775,1
6.0,-35.65454545454545,,,2139753.0,1611470541.95,1
6.0,20.577272727272728,0.502397,32.84,2139821.0,1611470542.125,1
6.0,1.0008333333333332,0.508802,32.84,2134763.25,1611470542.3,1
6.0,-115.20727272727272,,,2137065.6,1611470542.475,1
6.0,-75.10454545454546,0.511364,32.84,2139942.75,1611470542.65,1
6.0,97.77636363636363,0.517769,32.84,2133795.0,1611470542.825,1
6.0,325.62727272727267,,,2133394.2,1611470543.0,1
6.0,11.286666666666662,0.525454,32.84,2136069.0,1611470543.175,1
6.0,-135.2281818181818,0.522892,32.87,2132423.0,1611470543.35,1
6.0,-35.83909090909091,0.524173,32.87,2126858.2,1611470543.525,1
6.0,-3.6336363636363633,,,2127909.5,1611470543.7,1
6.0,-24.346363636363638,0.525454,32.87,2129596.2,1611470543.875,1
6.0,-28.376666666666665,0.524173,32.87,2122424.0,1611470544.05,1
6.0,25.663636363636364,,,2122074.25,1611470544.225,1
6.0,13.893636363636364,0.51905,32.84,2122335.8,1611470544.4,1
6.0,-19.632727272727273,0.51905,32.84,2109579.5,1611470544.575,1
6.0,0.36272727272727034,,,2102524.5,1611470544.75,1
6.0,29.189166666666665,0.516488,32.84,2113025.0,1611470544.925,1
6.0,-8.067272727272726,0.511364,32.84,2122882.25,1611470545.1,1
6.0,-43.400000000000006,0.512645,32.87,2124031.6,1611470545.275,1
6.0,-14.237272727272728,,,2119445.25,1611470545.45,1
6.0,27.46090909090909,0.513926,32.87,2121179.75,1611470545.625,1
6.0,10.542499999999999,0.508802,32.87,2126133.4,1611470545.8,1
6.0,-45.79727272727273,,,2126455.25,1611470545.975,1
6.0,-27.078181818181818,0.508802,32.87,2123465.0,1611470546.15,1
6.0,25.617272727272724,0.507521,32.83,2126502.2,1611470546.325,1
6.0,9.360000000000001,,,2132279.25,1611470546.5,1
6.0,-34.53,0.508802,32.83,2129406.2,1611470546.675,1
6.0,-0.9781818181818186,0.507521,32.83,2125703.75,1611470546.85,1
6.0,44.599090909090904,0.511364,32.83,2120194.0,1611470547.025,1
6.0,1.2190909090909092,,,2116986.6,1611470547.2,1
6.0,-56.562727272727265,0.508802,32.84,2106563.25,1611470547.375,1
6.0,-32.14416666666667,0.504959,32.84,2111804.0,1611470547.55,1
6.0,-26.053636363636368,,,2124298.6,1611470547.725,1
6.0,64.79454545454546,0.510083,32.84,2134618.5,1611470547.9,1
6.0,145.58,0.510083,32.84,2135071.2,1611470548.075,1
6.0,90.80636363636364,,,2133962.75,1611470548.25,1
6.0,-44.4175,0.512645,32.89,2137085.25,1611470548.425,1
6.0,-96.96181818181817,0.511364,32.89,2143133.0,1611470548.6,1
6.0,-25.151818181818182,0.507521,32.89,2141874.75,1611470548.775,1
6.0,5.301818181818183,,,2140143.25,1611470548.95,1
6.0,-18.096363636363634,0.508802,32.89,2143213.8,1611470549.125,1
6.0,-26.872500000000002,0.510083,32.84,2148254.0,1611470549.3,1
6.0,31.11,,,2145506.4,1611470549.475,1
6.0,11.622727272727273,0.510083,32.84,2142996.5,1611470549.65,1
6.0,-36.73454545454546,0.511364,32.84,2140476.5,1611470549.825,1
6.0,24.705454545454543,,,2146219.2,1611470550.0,1
6.0,15.4125,0.51905,32.84,2148619.25,1611470550.175,1
6.0,-50.93727272727272,0.517769,32.87,2159311.0,1611470550.35,1
6.0,-61.25090909090909,0.516488,32.87,2165385.8,1611470550.525,1
6.0,-25.26,,,2159807.5,1611470550.7,1
6.0,104.06363636363636,0.515207,32.87,2159842.2,1611470550.875,1
6.0,191.92,0.515207,32.87,2162978.25,1611470551.05,1
6.0,9.242727272727272,,,2161204.5,1611470551.225,1
6.0,-93.07818181818183,0.513926,32.89,2155638.0,1611470551.4,1
6.0,-104.16818181818181,0.511364,32.89,2156031.25,1611470551.575,1
6.0,-52.10909090909092,,,2157703.5,1611470551.75,1
6.0,30.168333333333333,0.507521,32.89,2150605.6,1611470551.925,1
6.0,14.88,0.510083,32.89,2148304.75,1611470552.1,1
6.0,-42.25909090909091,0.511364,32.87,2148768.6,1611470552.275,1
6.0,16.118181818181817,,,2141673.0,1611470552.45,1
6.0,26.16818181818182,0.513926,32.87,2138668.5,1611470552.625,1
6.0,-14.741666666666665,0.512645,32.87,2139423.4,1611470552.8,1
6.0,-64.65272727272728,,,2137491.5,1611470552.975,1
6.0,-8.965454545454547,0.510083,32.87,2131055.75,1611470553.15,1
6.0,34.46272727272728,0.510083,32.84,2130714.2,1611470553.325,1
6.0,80.70454545454545,,,2133863.0,1611470553.5,1
6.0,57.567499999999995,0.508802,32.84,2127892.0,1611470553.675,1
6.0,40.02181818181818,0.510083,32.84,2121854.0,1611470553.85,1
6.0,-38.150909090909096,0.508802,32.84,2121791.75,1611470554.025,1
6.0,-71.58,,,2124239.8,1611470554.2,1
6.0,13.453636363636365,0.50624,32.87,2117935.25,1611470554.375,1
6.0,16.298333333333332,0.503678,32.87,2118572.5,1611470554.55,1
6.0,-15.288181818181817,,,2124704.8,1611470554.725,1
6.0,-38.9,0.502397,32.87,2127930.5,1611470554.9,1
6.0,26.49636363636364,0.502397,32.87,2120158.25,1611470555.075,1
6.0,9.853636363636362,,,2105760.4,1611470555.25,1
6.0,-40.86333333333334,0.503678,32.84,2086507.5,1611470555.425,1
6.0,-32.39272727272727,0.502397,32.84,2060357.5,1611470555.6,1
6.0,-48.75545454545454,0.503678,32.84,2063364.6,1611470555.775,1
6.0,-83.72454545454546,,,2093621.5,1611470555.95,1
6.0,68.58272727272728,0.504959,32.84,2104148.2,1611470556.125,1
6.0,350.7516666666667,0.50624,32.87,2100553.5,1611470556.3,1
6.0,16.15545454545455,,,2101892.0,1611470556.475,1
6.0,-107.0309090909091,0.510083,32.87,2106665.8,1611470556.65,1
6.0,-89.1809090909091,0.515207,32.87,2108004.0,1611470556.825,1
6.0,-34.846363636363634,,,2102589.25,1611470557.0,1
6.0,-21.378333333333334,0.517769,32.87,2103452.4,1611470557.175,1
6.0,-50.95363636363636,0.517769,32.87,2107756.5,1611470557.35,1
6.0,-14.53,0.515207,32.87,2104970.8,1611470557.525,1
6.0,16.534545454545455,,,2104019.25,1611470557.7,1
6.0,2.036363636363636,0.515207,32.87,2095170.0,1611470557.875,1
6.0,-30.548333333333332,0.511364,32.87,2095801.4,1611470558.05,1
6.0,11.210909090909091,,,2101746.0,1611470558.225,1
6.0,7.786363636363637,0.510083,32.87,2106524.25,1611470558.4,1
6.0,-22.884545454545453,0.512645,32.87,2111578.4,1611470558.575,1
6.0,47.99636363636364,,,2110022.5,1611470558.75,1
6.0,117.97166666666668,0.508802,32.87,2107310.25,1611470558.925,1
6.0,68.7390909090909,0.503678,32.87,2109306.4,1611470559.1,1
6.0,12.572727272727274,0.502397,32.84,2114164.0,1611470559.275,1
6.0,-115.20272727272727,,,2110453.6,1611470559.45,1
6.0,-46.10909090909091,0.501116,32.84,2109924.25,1611470559.625,1
6.0,-41.84916666666666,0.499835,32.84,2113412.75,1611470559.8,1
6.0,-48.870000000000005,,,2118547.8,1611470559.975,1
6.0,-19.33,0.498555,32.84,2114214.75,1611470560.15,1
6.0,-10.557272727272727,0.502397,32.84,2115187.0,1611470560.325,1
6.0,-14.433636363636362,,,2112623.0,1611470560.5,1
6.0,-17.298333333333332,0.498555,32.84,2102289.75,1611470560.675,1
6.0,30.698181818181812,0.499835,32.84,2099019.5,1611470560.85,1
6.0,18.05454545454546,0.503678,32.84,2091173.6,1611470561.025,1
6.0,-12.774545454545455,,,2086951.5,1611470561.2,1
6.0,25.15454545454546,0.508802,32.87,2099087.6,1611470561.375,1
6.0,37.1125,0.511364,32.87,2104996.25,1611470561.55,1
6.0,14.234545454545456,,,2111117.5,1611470561.725,1
6.0,-6.904545454545455,0.515207,32.87,2116977.6,1611470561.9,1
6.0,11.52,0.515207,32.87,2114199.0,1611470562.075,1
6.0,-7.278181818181818,,,2114889.25,1611470562.25,1
6.0,-41.57333333333333,0.517769,32.84,2116740.4,1611470562.425,1
6.0,-21.06090909090909,0.51905,32.84,2115189.5,1611470562.6,1
6.0,10.840000000000002,0.51905,32.84,2110591.5,1611470562.775,1
6.0,8.86909090909091,,,2111625.6,1611470562.95,1
6.0,-8.696363636363635,0.516488,32.84,2115158.25,1611470563.125,1
6.0,20.598333333333333,0.520331,32.84,2112270.6,1611470563.3,1
6.0,20.755454545454544,,,2113228.5,1611470563.475,1
6.0,0.8645454545454547,0.510083,32.84,2109243.0,1611470563.65,1
6.0,7.840909090909091,0.508802,32.84,2090829.4,1611470563.825,1
6.0,22.264545454545456,,,2071111.75,1611470564.0,1
6.0,5.2316666666666665,0.510083,32.84,2075255.75,1611470564.175,1
6.0,-36.70272727272727,0.510083,32.84,2104005.6,1611470564.35,1
6.0,-20.569090909090907,0.513926,32.84,2113366.0,1611470564.525,1
6.0,42.77636363636364,,,2118946.2,1611470564.7,1
6.0,127.54272727272728,0.51905,32.84,2126127.5,1611470564.875,1
6.0,-28.765,0.51905,32.84,2130839.6666666665,1611470565.05,1
6.0,-55.76454545454545,,,2129476.4,1611470565.225,1
6.0,-24.373636363636365,0.517769,32.87,2135543.75,1611470565.4,1
6.0,-13.374545454545455,0.516488,32.87,2141116.25,1611470565.575,1
6.0,-23.35545454545455,,,2144437.4,1611470565.75,1
6.0,9.604999999999999,0.525454,32.87,2144213.25,1611470565.925,1
6.0,10.15090909090909,0.536983,32.87,2145297.0,1611470566.1,1
6.0,-12.399999999999999,0.520331,32.84,2150685.6,1611470566.275,1
6.0,-24.99363636363637,,,2147737.5,1611470566.45,1
6.0,10.18090909090909,0.51905,32.84,2145356.2,1611470566.625,1
6.0,13.07,0.515207,32.84,2152057.0,1611470566.8,1
6.0,-11.145454545454548,,,2162193.75,1611470566.975,1
6.0,-11.026363636363635,0.513926,32.84,2160284.8,1611470567.15,1
6.0,34.76181818181818,0.510083,32.87,2157723.25,1611470567.325,1
6.0,40.00363636363637,,,2158899.75,1611470567.5,1
6.0,-14.75,0.508802,32.87,2161804.0,1611470567.675,1
6.0,-48.50090909090909,0.512645,32.87,2157417.5,1611470567.85,1
6.0,-4.199090909090909,0.504959,32.87,2156882.8,1611470568.025,1
6.0,14.583636363636362,,,2158738.5,1611470568.2,1
6.0,7.219090909090909,0.503678,32.87,2160728.75,1611470568.375,1
6.0,-18.674166666666668,0.501116,32.87,2153754.0,1611470568.55,1
6.0,8.276363636363637,,,2152494.0,1611470568.725,1
6.0,13.07090909090909,0.50624,32.87,2155170.0,1611470568.9,1
6.0,-8.81,0.501116,32.87,2157933.2,1611470569.075,1
6.0,-40.876363636363635,,,2151741.25,1611470569.25,1
6.0,-20.991666666666667,0.501116,32.87,2151260.8,1611470569.425,1
6.0,-11.813636363636363,0.499835,32.87,2154867.0,1611470569.6,1
6.0,70.27272727272727,0.50624,32.87,2159948.75,1611470569.775,1
6.0,72.35181818181819,,,2156559.4,1611470569.95,1
6.0,11.042727272727273,0.512645,32.87,2154404.0,1611470570.125,1
6.0,-24.9475,0.516488,32.87,2156723.75,1611470570.3,1
6.0,-32.596363636363634,,,2162304.2,1611470570.475,1
6.0,-2.6163636363636367,0.524173,32.87,2160869.5,1611470570.65,1
6.0,4.124545454545455,0.525454,32.87,2160427.6,1611470570.825,1
6.0,-19.276363636363637,,,2163619.75,1611470571.0,1
6.0,-20.8425,0.528016,32.87,2168583.25,1611470571.175,1
6.0,10.516363636363637,0.529297,32.87,2166234.6,1611470571.35,1
6.0,3.8545454545454545,0.51905,32.87,2166520.0,1611470571.525,1
6.0,-21.993636363636366,,,2169637.25,1611470571.7,1
6.0,-8.50181818181818,0.521612,32.87,2158296.8,1611470571.875,1
6.0,-14.886666666666665,0.517769,32.87,2154162.75,1611470572.05,1
6.0,-71.46909090909092,,,2167349.2,1611470572.225,1
6.0,38.83181818181818,0.517769,32.87,2191324.25,1611470572.4,1
6.0,202.50090909090912,0.512645,32.87,2193841.0,1611470572.575,1
6.0,1.0163636363636357,,,2194001.6,1611470572.75,1
6.0,-57.214166666666664,0.515207,32.87,2195953.0,1611470572.925,1
6.0,-40.52454545454545,0.510083,32.87,2197014.5,1611470573.1,1
6.0,-11.79090909090909,0.512645,32.87,2188455.0,1611470573.275,1
6.0,-11.074545454545454,,,2185978.25,1611470573.45,1
6.0,-25.981818181818184,0.511364,32.87,2186744.75,1611470573.625,1
6.0,-1.7758333333333336,0.515207,32.87,2182956.8,1611470573.8,1
6.0,-13.314545454545453,,,2176537.25,1611470573.975,1
6.0,-46.595454545454544,0.511364,32.87,2176897.6,1611470574.15,1
6.0,48.3109090909091,0.51905,32.84,2180172.0,1611470574.325,1
6.0,43.26909090909091,,,2178673.25,1611470574.5,1
6.0,-29.073333333333334,0.521612,32.84,2180878.4,1611470574.675,1
6.0,-54.777272727272724,0.520331,32.84,2185735.25,1611470574.85,1
6.0,10.416363636363634,0.522892,32.84,2186577.25,1611470575.025,1
6.0,12.32090909090909,,,2182448.4,1611470575.2,1
6.0,-20.311818181818182,0.522892,32.84,2183872.5,1611470575.375,1
6.0,19.406666666666666,0.524173,32.84,2186538.6,1611470575.55,1
6.0,37.559999999999995,,,2181877.75,1611470575.725,1
6.0,3.7481818181818185,0.515207,32.84,2180495.25,1611470575.9,1
6.0,-23.548181818181817,0.516488,32.84,2181855.6,1611470576.075,1
6.0,30.074545454545454,,,2177794.0,1611470576.25,1
6.0,28.513333333333332,0.513926,32.87,2171536.4,1611470576.425,1
6.0,29.124545454545455,0.512645,32.87,2170894.75,1611470576.6,1
6.0,8.697272727272727,0.512645,32.87,2171506.5,1611470576.775,1
6.0,-8.18090909090909,,,2162322.2,1611470576.95,1
6.0,-19.98909090909091,0.511364,32.87,2159266.25,1611470577.125,1
6.0,-40.247499999999995,0.511364,32.87,2159523.8,1611470577.3,1
6.0,21.798181818181817,,,2152615.75,1611470577.475,1
6.0,12.313636363636363,0.507521,32.87,2146881.8,1611470577.65,1
6.0,-25.729999999999997,0.511364,32.87,2146611.75,1611470577.825,1
6.0,8.44,,,2145284.6,1611470578.0,1
6.0,31.715,0.513926,32.87,2136964.0,1611470578.175,1
6.0,-2.2254545454545456,0.512645,32.87,2138727.6,1611470578.35,1
6.0,-27.877272727272725,0.510083,32.87,2142012.75,1611470578.525,1
6.0,23.60363636363636,,,2136120.5,1611470578.7,1
6.0,0.6136363636363634,0.512645,32.87,2131530.0,1611470578.875,1
6.0,-50.38,0.512645,32.87,2132195.0,1611470579.05,1
6.0,-27.800909090909087,,,2132352.2,1611470579.225,1
6.0,103.53909090909089,0.512645,32.84,2125834.0,1611470579.4,1
6.0,72.98,0.512645,32.84,2125630.5,1611470579.575,1
6.0,1.3009090909090915,,,2128065.8,1611470579.75,1
6.0,49.49333333333334,0.508802,32.84,2121431.25,1611470579.925,1
6.0,10.136363636363637,0.511364,32.84,2118595.75,1611470580.1,1
6.0,-47.96727272727273,0.510083,32.87,2120011.6,1611470580.275,1
6.0,-45.93090909090909,,,2119498.0,1611470580.45,1
6.0,-18.830000000000002,0.507521,32.87,2112157.2,1611470580.625,1
6.0,-12.665833333333333,0.508802,32.87,2112054.75,1611470580.8,1
6.0,-22.253636363636364,,,2115262.5,1611470580.975,1
6.0,3.715454545454546,0.50624,32.87,2110428.2,1611470581.15,1
6.0,17.413636363636364,0.510083,32.87,2108086.25,1611470581.325,1
6.0,-12.70909090909091,,,2110354.25,1611470581.5,1
6.0,-30.183333333333334,0.510083,32.87,2113542.0,1611470581.675,1
6.0,3.4954545454545456,0.510083,32.87,2107533.25,1611470581.85,1
6.0,-9.094545454545454,0.521612,32.87,2107715.8,1611470582.025,1
6.0,-44.79545454545455,,,2111076.25,1611470582.2,1
6.0,-5.663636363636364,0.526735,32.89,2111902.75,1611470582.375,1
6.0,27.25666666666667,0.525454,32.89,2109876.8,1611470582.55,1
6.0,112.58727272727273,,,2114327.25,1611470582.725,1
6.0,126.76636363636364,0.524173,32.89,2120223.75,1611470582.9,1
6.0,-80.29181818181819,0.522892,32.89,2116860.4,1611470583.075,1
6.0,-87.09636363636363,,,2117249.75,1611470583.25,1
6.0,-53.06,0.521612,32.84,2121514.0,1611470583.425,1
6.0,-2.316363636363636,0.51905,32.84,2120334.5,1611470583.6,1
6.0,-3.5745454545454547,0.515207,32.84,2116560.0,1611470583.775,1
6.0,-24.73818181818182,,,2118686.8,1611470583.95,1
6.0,-15.194545454545455,0.512645,32.84,2113443.0,1611470584.125,1
6.0,12.688333333333333,0.513926,32.89,2097869.0,1611470584.3,1
6.0,-7.034545454545454,,,2106548.8,1611470584.475,1
6.0,-26.60545454545455,0.510083,32.89,2114360.75,1611470584.65,1
6.0,47.17909090909091,0.508802,32.89,2112571.0,1611470584.825,1
6.0,45.96454545454546,,,2114174.0,1611470585.0,1
6.0,91.27416666666666,0.507521,32.89,2118897.0,1611470585.175,1
6.0,32.165454545454544,0.50624,32.87,2120406.2,1611470585.35,1
6.0,-61.2,0.507521,32.87,2118464.25,1611470585.525,1
6.0,-52.66909090909091,,,2121415.0,1611470585.7,1
6.0,-53.75818181818182,0.513926,32.87,2126842.4,1611470585.875,1
6.0,-10.469166666666666,0.512645,32.87,2124389.25,1611470586.05,1
6.0,14.601818181818182,,,2125058.8,1611470586.225,1
6.0,4.935454545454546,0.512645,32.87,2129351.25,1611470586.4,1
6.0,-4.01,0.516488,32.87,2132419.25,1611470586.575,1
6.0,25.448181818181812,,,2129881.8,1611470586.75,1
6.0,21.135833333333334,0.51905,32.87,2132044.0,1611470586.925,1
6.0,-12.97181818181818,0.516488,32.87,2135933.5,1611470587.1,1
6.0,-26.927272727272726,0.515207,32.87,2133084.0,1611470587.275,1
6.0,9.843636363636364,,,2130868.0,1611470587.45,1
6.0,13.15,0.512645,32.87,2133059.6,1611470587.625,1
6.0,-5.870833333333333,0.511364,32.87,2135984.0,1611470587.8,1
6.0,-4.069999999999999,,,2131035.5,1611470587.975,1
6.0,-10.41090909090909,0.512645,32.87,2130331.0,1611470588.15,1
6.0,-1.0690909090909089,0.510083,32.84,2133063.75,1611470588.325,1
6.0,-18.919999999999998,,,2133711.25,1611470588.5,1
6.0,4.16,0.507521,32.84,2128540.6,1611470588.675,1
6.0,6.756363636363636,0.507521,32.84,2129173.5,1611470588.85,1
6.0,-12.741818181818182,0.510083,32.84,2132203.6666666665,1611470589.025,1
6.0,-8.835454545454546,,,2133744.4,1611470589.2,1
6.0,9.200909090909091,0.504959,32.84,2130394.25,1611470589.375,1
6.0,-9.815,0.510083,32.84,2120189.75,1611470589.55,1
6.0,-52.27181818181818,,,2108023.4,1611470589.725,1
6.0,-57.51454545454545,0.508802,32.84,2088350.75,1611470589.9,1
6.0,3.7145454545454544,0.510083,32.84,2078078.5,1611470590.075,1
6.0,198.43545454545455,,,2099040.0,1611470590.25,1
6.0,45.62166666666667,0.508802,32.87,2118946.0,1611470590.425,1
6.0,-32.49909090909091,0.508802,32.87,2120857.25,1611470590.6,1
6.0,-32.61818181818182,0.510083,32.87,2124294.6,1611470590.775,1
6.0,-43.00454545454545,,,2129722.0,1611470590.95,1
6.0,-12.965454545454547,0.508802,32.87,2131657.8,1611470591.125,1
6.0,9.400833333333333,0.504959,32.84,2127567.75,1611470591.3,1
6.0,-2.3363636363636364,,,2129065.0,1611470591.475,1
6.0,-11.754545454545456,0.50624,32.84,2133186.8,1611470591.65,1
6.0,16.49,0.511364,32.84,2130092.25,1611470591.825,1
6.0,13.223636363636365,,,2129604.25,1611470592.0,1
6.0,-16.798333333333336,0.512645,32.84,2133042.6,1611470592.175,1
6.0,-15.52727272727273,0.51905,32.89,2135783.75,1611470592.35,1
6.0,-3.713636363636364,0.522892,32.89,2131183.0,1611470592.525,1
6.0,-12.105454545454545,,,2132763.75,1611470592.7,1
6.0,-35.06909090909091,0.530578,32.89,2137238.0,1611470592.875,1
6.0,12.344166666666666,0.53314,32.89,2136905.2,1611470593.05,1
6.0,26.237272727272728,,,2134110.5,1611470593.225,1
6.0,4.215454545454545,0.536983,32.84,2136120.75,1611470593.4,1
6.0,-7.8572727272727265,0.53314,32.84,2139640.8,1611470593.575,1
6.0,21.024545454545457,,,2135964.5,1611470593.75,1
6.0,16.37,0.529297,32.84,2136888.8,1611470593.925,1
6.0,-27.00909090909091,0.529297,32.84,2135644.75,1611470594.1,1
6.0,-48.441818181818185,0.526735,32.84,2117896.75,1611470594.275,1
6.0,-51.76909090909091,,,2122657.4,1611470594.45,1
6.0,32.22090909090909,0.538264,32.84,2143320.75,1611470594.625,1
6.0,227.75333333333333,0.548511,32.84,2158058.25,1611470594.8,1
6.0,37.59909090909092,,,2153034.4,1611470594.975,1
6.0,-59.01454545454545,0.554916,32.84,2149728.25,1611470595.15,1
6.0,-53.93454545454545,0.565164,32.84,2151735.8,1611470595.325,1
6.0,-45.57272727272727,,,2151522.5,1611470595.5,1
6.0,-2.7575000000000003,0.575411,32.84,2143214.25,1611470595.675,1
6.0,-1.9036363636363633,0.583097,32.84,2141226.6,1611470595.85,1
6.0,-25.234545454545454,0.584378,32.84,2141362.5,1611470596.025,1
6.0,-12.648181818181818,,,2136097.75,1611470596.2,1
6.0,15.272727272727273,0.584378,32.84,2125372.2,1611470596.375,1
6.0,10.084166666666667,0.576692,32.84,2122342.25,1611470596.55,1
6.0,-13.311818181818182,,,2123912.4,1611470596.725,1
6.0,30.569999999999997,0.575411,32.84,2118980.5,1611470596.9,1
6.0,13.878181818181817,0.57413,32.84,2115069.0,1611470597.075,1
6.0,-12.746363636363634,,,2114735.2,1611470597.25,1
6.0,-42.375,0.565164,32.87,2116495.75,1611470597.425,1
6.0,3.144545454545454,0.566445,32.87,2110449.25,1611470597.6,1
6.0,14.937272727272727,0.562602,32.87,2109179.0,1611470597.775,1
6.0,6.000909090909091,,,2111620.75,1611470597.95,1
6.0,-24.844545454545457,0.557478,32.87,2111492.2,1611470598.125,1
6.0,4.345833333333334,0.56004,32.87,2106228.25,1611470598.3,1
6.0,18.949090909090913,,,2107383.5,1611470598.475,1
6.0,2.8745454545454545,0.558759,32.87,2111659.0,1611470598.65,1
6.0,-19.866363636363637,0.556197,32.87,2107917.25,1611470598.825,1
6.0,12.576363636363636,,,2102089.5,1611470599.0,1
6.0,10.021666666666667,0.554916,32.87,2101083.2,1611470599.175,1
6.0,-12.354545454545455,0.554916,32.87,2117025.5,1611470599.35,1
6.0,-7.4363636363636365,0.552354,32.87,2120592.8,1611470599.525,1
6.0,12.967272727272729,,,2123780.75,1611470599.7,1
6.0,1.5636363636363635,0.553635,32.87,2127828.75,1611470599.875,1
6.0,-24.752499999999998,0.548511,32.87,2133087.2,1611470600.05,1
6.0,3.3536363636363635,,,2130572.5,1611470600.225,1
6.0,14.530909090909091,0.548511,32.87,2126879.25,1611470600.4,1
6.0,-4.533636363636364,0.543388,32.87,2128110.0,1611470600.575,1
6.0,-26.53818181818182,,,2132277.75,1611470600.75,1
6.0,13.224166666666667,0.543388,32.87,2127604.8,1611470600.925,1
6.0,17.863636363636363,0.54723,32.87,2126705.0,1611470601.1,1
6.0,-8.552727272727273,0.54723,32.84,2129036.25,1611470601.275,1
6.0,-56.08454545454546,,,2131729.4,1611470601.45,1
6.0,-66.35090909090908,0.549792,32.84,2128823.75,1611470601.625,1
6.0,-34.60333333333333,0.562602,32.84,2134026.25,1611470601.8,1
6.0,74.71545454545455,,,2139726.0,1611470601.975,1
6.0,166.80727272727273,0.54595,32.84,2134915.5,1611470602.15,1
6.0,128.6890909090909,0.54595,32.84,2126322.25,1611470602.325,1
6.0,-55.27363636363636,,,2122721.8,1611470602.5,1
6.0,-70.37249999999999,0.544669,32.84,2123150.0,1611470602.675,1
6.0,-46.50818181818182,0.540826,32.84,2113886.4,1611470602.85,1
6.0,-4.503636363636364,0.539545,32.84,2108730.25,1611470603.025,1
6.0,-2.955454545454545,,,2108756.0,1611470603.2,1
6.0,-25.91,0.536983,32.84,2111219.4,1611470603.375,1
6.0,-15.816666666666668,0.536983,32.84,2103674.0,1611470603.55,1
6.0,10.298181818181819,,,2100237.5,1611470603.725,1
6.0,10.110000000000001,0.535702,32.84,2100996.8,1611470603.9,1
6.0,-15.982727272727272,0.540826,32.84,2104917.75,1611470604.075,1
6.0,7.506363636363636,,,2100378.0,1611470604.25,1
6.0,14.87,0.542107,32.84,2097947.2,1611470604.425,1
6.0,2.63,0.540826,32.84,2099951.5,1611470604.6,1
6.0,-16.89,0.542107,32.84,2102150.6,1611470604.775,1
6.0,15.108181818181817,,,2096042.25,1611470604.95,1
6.0,11.149999999999999,0.540826,32.84,2093979.25,1611470605.125,1
6.0,-10.169166666666667,0.542107,32.84,2095286.6,1611470605.3,1
6.0,-13.487272727272728,,,2093140.75,1611470605.475,1
6.0,11.29,0.539545,32.84,2085797.25,1611470605.65,1
6.0,5.573636363636364,0.538264,32.84,2084263.0,1611470605.825,1
6.0,-17.759999999999998,,,2086997.5,1611470606.0,1
6.0,2.3291666666666666,0.538264,32.84,2083021.4,1611470606.175,1
6.0,10.72,0.53314,32.87,2082407.5,1611470606.35,1
6.0,-2.4236363636363634,0.531859,32.87,2088214.0,1611470606.525,1
6.0,-13.980909090909092,,,2097860.8,1611470606.7,1
6.0,10.921818181818182,0.531859,32.87,2095562.25,1611470606.875,1
6.0,1.2066666666666666,0.531859,32.87,2096151.5,1611470607.05,1
6.0,-25.41454545454546,,,2100410.0,1611470607.225,1
6.0,1.6881818181818178,0.531859,32.84,2104537.5,1611470607.4,1
6.0,12.030909090909091,0.531859,32.84,2100309.8,1611470607.575,1
6.0,-4.876363636363636,,,2102612.25,1611470607.75,1
6.0,-17.08666666666667,0.536983,32.84,2107302.5,1611470607.925,1
6.0,16.19909090909091,0.538264,32.84,2107679.4,1611470608.1,1
6.0,11.057272727272727,0.538264,32.84,2106073.5,1611470608.275,1
6.0,-16.403636363636362,,,2108873.25,1611470608.45,1
6.0,1.6481818181818182,0.540826,32.84,2113680.8,1611470608.625,1
6.0,21.530833333333334,0.540826,32.84,2109967.75,1611470608.8,1
6.0,21.471818181818183,,,2114466.4,1611470608.975,1
6.0,4.086363636363638,0.539545,32.84,2119261.0,1611470609.15,1
6.0,-10.340909090909093,0.539545,32.89,2114739.25,1611470609.325,1
6.0,-29.947272727272733,,,2114287.8,1611470609.5,1
6.0,-30.444166666666664,0.538264,32.89,2117177.0,1611470609.675,1
6.0,8.894545454545455,0.534421,32.89,2120393.25,1611470609.85,1
6.0,17.50818181818182,0.53314,32.89,2114851.8,1611470610.025,1
6.0,-2.2363636363636363,,,2114907.5,1611470610.2,1
6.0,-4.841818181818183,0.534421,32.87,2119469.4,1611470610.375,1
6.0,16.5425,0.530578,32.87,2118308.75,1611470610.55,1
6.0,1.8881818181818184,,,2115075.75,1611470610.725,1
6.0,-16.706363636363633,0.529297,32.87,2116731.0,1611470610.9,1
6.0,14.823636363636364,0.526735,32.87,2120056.5,1611470611.075,1
6.0,8.123636363636365,,,2115933.25,1611470611.25,1
6.0,-19.0425,0.53314,32.87,2115663.8,1611470611.425,1
6.0,-4.6499999999999995,0.536983,32.87,2118764.0,1611470611.6,1
6.0,-1.7390909090909086,0.534421,32.87,2116337.2,1611470611.775,1
6.0,59.26545454545455,,,2114316.25,1611470611.95,1
6.0,-1.3836363636363638,0.536983,32.87,2116370.5,1611470612.125,1
6.0,8.381666666666666,0.535702,32.87,2117198.8,1611470612.3,1
6.0,-6.212727272727273,,,2112584.0,1611470612.475,1
6.0,-36.087272727272726,0.538264,32.87,2113569.75,1611470612.65,1
6.0,5.053636363636364,0.538264,32.87,2116248.4,1611470612.825,1
6.0,9.693636363636363,,,2111398.25,1611470613.0,1
6.0,-16.791666666666664,0.53314,32.87,2111323.6,1611470613.175,1
6.0,-14.023636363636363,0.531859,32.87,2114449.5,1611470613.35,1
6.0,19.35818181818182,0.531859,32.87,2112913.5,1611470613.525,1
6.0,16.034545454545455,,,2109951.4,1611470613.7,1
6.0,-16.366363636363637,0.530578,32.87,2112096.75,1611470613.875,1
6.0,9.406666666666666,0.529297,32.87,2114166.2,1611470614.05,1
6.0,26.888181818181817,,,2109524.25,1611470614.225,1
6.0,9.22272727272727,0.534421,32.84,2110648.0,1611470614.4,1
6.0,-33.77636363636364,0.530578,32.84,2113840.8,1611470614.575,1
6.0,-6.031818181818181,,,2109306.25,1611470614.75,1
6.0,22.127499999999998,0.529297,32.84,2107071.75,1611470614.925,1
6.0,11.423636363636364,0.530578,32.84,2108927.2,1611470615.1,1
6.0,-24.08090909090909,0.526735,32.87,2109252.0,1611470615.275,1
6.0,-17.290000000000003,,,2102672.0,1611470615.45,1
6.0,16.46818181818182,0.526735,32.87,2102956.0,1611470615.625,1
6.0,8.435,0.524173,32.87,2106977.75,1611470615.8,1
6.0,-29.523636363636363,,,2104090.4,1611470615.975,1
6.0,-23.168181818181818,0.512645,32.87,2101099.5,1611470616.15,1
6.0,-38.35727272727273,0.515207,32.87,2100813.25,1611470616.325,1
6.0,-77.4809090909091,,,2098103.0,1611470616.5,1
6.0,-104.9525,0.528016,32.87,2112171.5,1611470616.675,1
6.0,-15.883636363636363,0.548511,32.87,2121410.0,1611470616.85,1
6.0,67.51454545454546,0.571568,32.87,2125375.0,1611470617.025,1
