ID,empatica_bvp,empatica_eda,empatica_temp,samsung_bvp,time,CL
6.0,-29.046000000000003,,,2175889.0,1611470706.3861842,0
6.0,10.702000000000002,,,2177685.0,1611470706.4598684,0
6.0,25.381999999999998,0.542107,32.73,2179882.0,1611470706.5335526,0
6.0,26.284999999999997,,,2179645.0,1611470706.6072369,0
6.0,18.802,,,2175298.0,1611470706.680921,0
6.0,12.510000000000002,0.741934,32.73,2172527.5,1611470706.7546053,0
6.0,10.081999999999999,,,2171751.0,1611470706.8282895,0
6.0,1.0149999999999997,,,2171804.0,1611470706.9019737,0
6.0,-7.294,,,2171536.0,1611470706.975658,0
6.0,-24.482,0.617682,32.73,2172286.5,1611470707.0493422,0
6.0,-19.635,,,2173861.0,1611470707.1230264,0
6.0,35.32000000000001,,,2175657.0,1611470707.1967106,0
6.0,73.03,0.599749,32.73,2177193.5,1611470707.2703948,0
6.0,130.148,,,2179444.0,1611470707.344079,0
6.0,146.5025,,,2177400.0,1611470707.4177632,0
6.0,111.324,,,2173133.0,1611470707.4914474,0
6.0,28.458,0.603592,32.73,2170896.0,1611470707.5651317,0
6.0,-174.14249999999998,,,2170262.0,1611470707.6388159,0
6.0,-493.238,,,2170394.5,1611470707.7125,0
6.0,-479.2780000000001,0.602311,32.73,2170390.5,1611470707.7861843,0
6.0,-265.872,,,2171277.0,1611470707.8598685,0
6.0,-50.3975,,,2173128.5,1611470707.9335527,0
6.0,78.834,0.602311,32.73,2175220.5,1611470708.007237,0
6.0,84.244,,,2177644.0,1611470708.080921,0
6.0,88.56,,,2179873.0,1611470708.1546052,0
6.0,62.27,,,2178092.0,1611470708.2282894,0
6.0,20.648,0.606154,32.73,2174151.0,1611470708.3019736,0
6.0,-16.662,,,2172455.0,1611470708.3756578,0
6.0,-63.2525,,,2172024.5,1611470708.449342,0
6.0,-72.83000000000001,0.602311,32.73,2172211.5,1611470708.5230262,0
6.0,-23.218,,,2172543.0,1611470708.5967104,0
6.0,7.3175,,,2173535.0,1611470708.6703947,0
6.0,31.354000000000003,,,2175390.0,1611470708.7440789,0
6.0,57.71400000000001,0.603592,32.73,2177777.5,1611470708.817763,0
6.0,73.964,,,2180485.5,1611470708.8914473,0
6.0,63.1775,,,2183160.0,1611470708.9651315,0
6.0,41.488,0.603592,32.73,2182777.0,1611470709.0388157,0
6.0,13.77,,,2179202.6666666665,1611470709.1125,0
6.0,-19.8175,,,2177813.0,1611470709.1861842,0
6.0,-2.634,0.606154,32.73,2177504.0,1611470709.2598684,0
6.0,38.348,,,2177961.0,1611470709.3335526,0
6.0,46.052,,,2178626.0,1611470709.4072368,0
6.0,40.6075,,,2180147.0,1611470709.480921,0
6.0,43.333999999999996,0.604873,32.73,2182313.5,1611470709.5546052,0
6.0,45.15599999999999,,,2183963.0,1611470709.6282895,0
6.0,23.9075,,,2185938.5,1611470709.7019737,0
6.0,-2.66,0.607435,32.73,2187392.5,1611470709.775658,0
6.0,-38.024,,,2184561.5,1611470709.849342,0
6.0,-36.715999999999994,,,2183129.0,1611470709.9230263,0
6.0,6.495,,,2183484.5,1611470709.9967105,0
6.0,23.328,0.606154,32.73,2184338.0,1611470710.0703948,0
6.0,17.754,,,2185049.5,1611470710.144079,0
6.0,7.34,,,2186350.0,1611470710.2177632,0
6.0,2.518,0.607435,32.71,2187860.0,1611470710.2914474,0
6.0,-12.178,,,2190294.0,1611470710.3651316,0
6.0,-33.03,,,2191948.0,1611470710.4388158,0
6.0,-48.837500000000006,0.611278,32.71,2189302.0,1611470710.5125,0
6.0,-30.02,,,2187291.5,1611470710.5861843,0
6.0,22.13,,,2186898.0,1611470710.6598685,0
6.0,46.8275,,,2187601.5,1611470710.7335527,0
6.0,51.025999999999996,0.608716,32.71,2188300.0,1611470710.807237,0
6.0,49.0,,,2189262.0,1611470710.8809211,0
6.0,47.1,,,2191156.0,1611470710.9546053,0
6.0,22.7225,0.608716,32.71,2193570.5,1611470711.0282896,0
6.0,1.9099999999999995,,,2195618.0,1611470711.1019738,0
6.0,-25.137999999999998,,,2195520.0,1611470711.175658,0
6.0,-32.9,,,2192043.0,1611470711.2493422,0
6.0,1.9720000000000002,0.604873,32.68,2190020.5,1611470711.3230264,0
6.0,34.932,,,2189308.0,1611470711.3967106,0
6.0,38.550000000000004,,,2189516.0,1611470711.4703948,0
6.0,33.5975,0.595906,32.68,2189775.5,1611470711.544079,0
6.0,32.374,,,2190501.0,1611470711.617763,0
6.0,27.544,,,2191763.0,1611470711.6914473,0
6.0,7.615,0.594625,32.68,2193870.5,1611470711.7651315,0
6.0,-24.871999999999996,,,2194720.5,1611470711.8388157,0
6.0,-42.192,,,2190835.5,1611470711.9125,0
6.0,-1.3680000000000008,,,2188626.5,1611470711.9861841,0
6.0,31.645000000000003,0.592064,32.68,2187852.0,1611470712.0598683,0
6.0,32.654,,,2188111.5,1611470712.1335526,0
6.0,29.356,,,2188468.0,1611470712.2072368,0
6.0,29.5625,0.592064,32.73,2189388.5,1611470712.280921,0
6.0,25.604000000000003,,,2191218.0,1611470712.3546052,0
6.0,9.553999999999998,,,2193509.0,1611470712.4282894,0
6.0,-3.3819999999999992,0.589502,32.73,2195172.5,1611470712.5019736,0
6.0,-24.655,,,2192881.0,1611470712.5756578,0
6.0,-34.522,,,2190001.5,1611470712.649342,0
6.0,8.751999999999999,,,2188511.0,1611470712.7230263,0
6.0,30.9225,0.589502,32.73,2188355.5,1611470712.7967105,0
6.0,34.775999999999996,,,2188417.5,1611470712.8703947,0
6.0,49.306,,,2188704.5,1611470712.944079,0
6.0,57.489999999999995,0.585659,32.73,2189541.0,1611470713.0177631,0
6.0,65.37,,,2190875.0,1611470713.0914474,0
6.0,75.184,,,2192755.5,1611470713.1651316,0
6.0,66.816,,,2190807.0,1611470713.2388158,0
6.0,10.232499999999998,0.583097,32.68,2187772.0,1611470713.3125,0
6.0,-48.382,,,2186727.5,1611470713.3861842,0
6.0,-51.842000000000006,,,2186785.0,1611470713.4598684,0
6.0,-35.803999999999995,0.577973,32.68,2186929.0,1611470713.5335526,0
6.0,-32.739999999999995,,,2187469.5,1611470713.6072369,0
6.0,-28.110000000000003,,,2189071.0,1611470713.680921,0
6.0,-16.98,0.575411,32.68,2191058.5,1611470713.7546053,0
6.0,-14.24,,,2192452.5,1611470713.8282895,0
6.0,-16.115,,,2190547.0,1611470713.9019737,0
6.0,-15.954000000000002,,,2187070.0,1611470713.975658,0
6.0,-34.978,0.575411,32.68,2184965.5,1611470714.0493422,0
6.0,-29.015,,,2184643.5,1611470714.1230264,0
6.0,1.52,,,2184736.5,1611470714.1967106,0
6.0,8.792,0.57413,32.68,2185425.0,1611470714.2703948,0
6.0,8.094,,,2186613.0,1611470714.344079,0
6.0,7.444999999999999,,,2188141.0,1611470714.4177632,0
6.0,2.976,,,2189766.0,1611470714.4914474,0
6.0,-7.368,0.576692,32.68,2189536.5,1611470714.5651317,0
6.0,-19.39,,,2185291.5,1611470714.6388159,0
6.0,-36.278000000000006,,,2182196.5,1611470714.7125,0
6.0,-37.36,0.571568,32.68,2180859.5,1611470714.7861843,0
6.0,-8.438,,,2180741.0,1611470714.8598685,0
6.0,-4.4775,,,2181086.5,1611470714.9335527,0
6.0,-9.148000000000001,0.572849,32.68,2181421.0,1611470715.007237,0
6.0,-5.396000000000001,,,2182782.0,1611470715.080921,0
6.0,-3.3500000000000005,,,2184888.5,1611470715.1546052,0
6.0,-25.342000000000002,,,2187245.5,1611470715.2282894,0
6.0,-39.1,0.565164,32.71,2186743.0,1611470715.3019736,0
6.0,-52.708000000000006,,,2182985.5,1611470715.3756578,0
6.0,-61.175,,,2180430.0,1611470715.449342,0
6.0,-32.8,0.565164,32.71,2179244.0,1611470715.5230262,0
6.0,4.351999999999999,,,2179312.5,1611470715.5967104,0
6.0,6.295,,,2179539.0,1611470715.6703947,0
6.0,5.502,,,2180621.0,1611470715.7440789,0
6.0,24.294000000000004,0.581816,32.71,2182100.0,1611470715.817763,0
6.0,25.881999999999998,,,2183405.0,1611470715.8914473,0
6.0,23.802500000000002,,,2185976.0,1611470715.9651315,0
6.0,15.006,0.565164,32.71,2186119.5,1611470716.0388157,0
6.0,11.426,,,2182690.5,1611470716.1125,0
6.0,34.625,,,2180946.5,1611470716.1861842,0
6.0,37.232,0.562602,32.71,2180636.0,1611470716.2598684,0
6.0,8.668000000000001,,,2180873.0,1611470716.3335526,0
6.0,6.662000000000001,,,2181218.0,1611470716.4072368,0
6.0,17.5775,,,2182276.0,1611470716.480921,0
6.0,10.278,0.566445,32.71,2184149.0,1611470716.5546052,0
6.0,-7.148000000000001,,,2186547.5,1611470716.6282895,0
6.0,-21.7575,,,2188059.0,1611470716.7019737,0
6.0,-32.510000000000005,0.566445,32.71,2186354.5,1611470716.775658,0
6.0,-8.828000000000001,,,2183328.0,1611470716.849342,0
6.0,5.672,,,2182223.0,1611470716.9230263,0
6.0,-4.52,,,2182478.0,1611470716.9967105,0
6.0,-15.116,0.565164,32.71,2183092.5,1611470717.0703948,0
6.0,-2.8440000000000003,,,2184056.5,1611470717.144079,0
6.0,18.585,,,2185453.0,1611470717.2177632,0
6.0,1.5120000000000002,0.563883,32.68,2186892.5,1611470717.2914474,0
6.0,-13.756,,,2189042.0,1611470717.3651316,0
6.0,-27.018,,,2187437.0,1611470717.4388158,0
6.0,-17.9625,0.558759,32.68,2184725.0,1611470717.5125,0
6.0,7.970000000000001,,,2184147.5,1611470717.5861843,0
6.0,15.406,,,2184555.0,1611470717.6598685,0
6.0,17.4075,,,2184898.0,1611470717.7335527,0
6.0,19.324,0.558759,32.68,2185719.0,1611470717.807237,0
6.0,22.365999999999996,,,2187320.5,1611470717.8809211,0
6.0,4.284000000000001,,,2189515.5,1611470717.9546053,0
6.0,-16.027500000000003,0.558759,32.68,2191849.5,1611470718.0282896,0
6.0,-29.322000000000003,,,2192081.0,1611470718.1019738,0
6.0,-37.714,,,2189163.0,1611470718.175658,0
6.0,-10.6475,,,2187424.5,1611470718.2493422,0
6.0,13.790000000000001,0.562602,32.66,2187373.5,1611470718.3230264,0
6.0,15.424000000000001,,,2187978.5,1611470718.3967106,0
6.0,19.26,,,2188465.5,1611470718.4703948,0
6.0,26.4,0.577973,32.66,2189276.0,1611470718.544079,0
6.0,22.516,,,2190682.5,1611470718.617763,0
6.0,5.989999999999999,,,2192885.0,1611470718.6914473,0
6.0,-10.3125,0.561321,32.66,2193476.0,1611470718.7651315,0
6.0,-24.604,,,2190356.0,1611470718.8388157,0
6.0,-43.06,,,2188849.5,1611470718.9125,0
6.0,-16.332,,,2189444.5,1611470718.9861841,0
6.0,14.8975,0.561321,32.66,2189723.0,1611470719.0598683,0
6.0,15.325999999999999,,,2190320.0,1611470719.1335526,0
6.0,17.026,,,2191465.5,1611470719.2072368,0
6.0,23.185000000000002,0.561321,32.68,2193092.5,1611470719.280921,0
6.0,24.150000000000002,,,2195475.0,1611470719.3546052,0
6.0,8.780000000000001,,,2194376.0,1611470719.4282894,0
6.0,-19.48,0.556197,32.68,2190516.5,1611470719.5019736,0
6.0,-32.2125,,,2189030.0,1611470719.5756578,0
6.0,-47.589999999999996,,,2189064.0,1611470719.649342,0
6.0,-35.278,,,2189111.0,1611470719.7230263,0
6.0,-2.9675000000000002,0.553635,32.68,2189553.0,1611470719.7967105,0
6.0,8.77,,,2190524.5,1611470719.8703947,0
6.0,7.843999999999999,,,2192392.5,1611470719.944079,0
6.0,12.326,0.553635,32.68,2194643.0,1611470720.0177631,0
6.0,19.972499999999997,,,2193804.0,1611470720.0914474,0
6.0,8.091999999999999,,,2189710.5,1611470720.1651316,0
6.0,-7.946000000000001,,,2187459.5,1611470720.2388158,0
6.0,-24.634999999999998,0.554916,32.68,2186674.5,1611470720.3125,0
6.0,-38.242,,,2186809.5,1611470720.3861842,0
6.0,-2.5639999999999996,,,2186903.0,1611470720.4598684,0
6.0,28.580000000000002,0.553635,32.68,2187824.0,1611470720.5335526,0
6.0,32.865,,,2189583.0,1611470720.6072369,0
6.0,31.014,,,2191728.0,1611470720.680921,0
6.0,28.314,0.556197,32.68,2192948.5,1611470720.7546053,0
6.0,11.25,,,2188941.0,1611470720.8282895,0
6.0,-1.4675,,,2186197.5,1611470720.9019737,0
6.0,-16.952,,,2185079.5,1611470720.975658,0
6.0,-34.562000000000005,0.553635,32.68,2185226.0,1611470721.0493422,0
6.0,2.0850000000000004,,,2185457.5,1611470721.1230264,0
6.0,33.292,,,2186318.0,1611470721.1967106,0
6.0,17.726,0.549792,32.68,2187466.5,1611470721.2703948,0
6.0,9.697999999999999,,,2189681.5,1611470721.344079,0
6.0,15.73,,,2191993.5,1611470721.4177632,0
6.0,11.614,,,2192792.0,1611470721.4914474,0
6.0,-7.9079999999999995,0.549792,32.68,2188755.0,1611470721.5651317,0
6.0,-25.6825,,,2186886.0,1611470721.6388159,0
6.0,-46.284,,,2186074.5,1611470721.7125,0
6.0,-22.428,0.552354,32.68,2186040.0,1611470721.7861843,0
6.0,24.812,,,2186239.5,1611470721.8598685,0
6.0,27.2275,,,2187045.5,1611470721.9335527,0
6.0,19.238,0.548511,32.68,2188858.5,1611470722.007237,0
6.0,24.907999999999998,,,2190943.5,1611470722.080921,0
6.0,27.2625,,,2192740.0,1611470722.1546052,0
6.0,9.042,,,2194543.5,1611470722.2282894,0
6.0,-11.32,0.548511,32.66,2192623.5,1611470722.3019736,0
6.0,-32.802,,,2189385.5,1611470722.3756578,0
6.0,-43.3275,,,2188360.5,1611470722.449342,0
6.0,-12.258,0.551073,32.66,2188532.0,1611470722.5230262,0
6.0,14.498000000000001,,,2188735.0,1611470722.5967104,0
6.0,10.395,,,2189272.5,1611470722.6703947,0
6.0,13.374,,,2190464.0,1611470722.7440789,0
6.0,19.316000000000003,0.551073,32.66,2192600.5,1611470722.817763,0
6.0,17.970000000000002,,,2194909.0,1611470722.8914473,0
6.0,4.2525,,,2195081.0,1611470722.9651315,0
6.0,-13.908000000000001,0.548511,32.66,2192189.0,1611470723.0388157,0
6.0,-28.982,,,2190833.0,1611470723.1125,0
6.0,-37.1625,,,2190674.5,1611470723.1861842,0
6.0,-15.148000000000001,0.543388,32.66,2191311.0,1611470723.2598684,0
6.0,12.676,,,2191587.5,1611470723.3335526,0
6.0,13.709999999999999,,,2192882.5,1611470723.4072368,0
6.0,16.4225,,,2194916.0,1611470723.480921,0
6.0,21.264,0.542107,32.66,2196802.0,1611470723.5546052,0
6.0,17.380000000000003,,,2197466.5,1611470723.6282895,0
6.0,2.165,,,2194368.0,1611470723.7019737,0
6.0,-13.696000000000002,0.544669,32.66,2192121.0,1611470723.775658,0
6.0,-27.496000000000002,,,2192114.5,1611470723.849342,0
6.0,-35.785999999999994,,,2192573.5,1611470723.9230263,0
6.0,-7.392499999999999,,,2192786.0,1611470723.9967105,0
6.0,16.512,0.543388,32.66,2193456.5,1611470724.0703948,0
6.0,14.498,,,2195170.5,1611470724.144079,0
6.0,17.05,,,2197391.5,1611470724.2177632,0
6.0,18.875999999999998,0.548511,32.66,2198846.0,1611470724.2914474,0
6.0,13.168000000000001,,,2195127.0,1611470724.3651316,0
6.0,-4.308,,,2192550.0,1611470724.4388158,0
6.0,-19.2025,0.544669,32.66,2191422.5,1611470724.5125,0
6.0,-31.608000000000004,,,2191041.0,1611470724.5861843,0
6.0,-46.582,,,2190987.5,1611470724.6598685,0
6.0,-29.452499999999997,,,2191535.0,1611470724.7335527,0
6.0,-7.761999999999999,0.543388,32.66,2192818.0,1611470724.807237,0
6.0,1.866,,,2194749.0,1611470724.8809211,0
6.0,4.132,,,2196624.0,1611470724.9546053,0
6.0,4.695,0.543388,32.66,2196191.5,1611470725.0282896,0
6.0,5.236000000000001,,,2191906.0,1611470725.1019738,0
6.0,-4.659999999999999,,,2189129.0,1611470725.175658,0
6.0,-10.6125,,,2187876.5,1611470725.2493422,0
6.0,-16.83,0.539545,32.66,2187727.5,1611470725.3230264,0
6.0,-24.782,,,2187499.0,1611470725.3967106,0
6.0,10.352,,,2188070.0,1611470725.4703948,0
6.0,34.25,0.535702,32.66,2189414.0,1611470725.544079,0
6.0,34.126,,,2191283.0,1611470725.617763,0
6.0,28.892000000000003,,,2193390.5,1611470725.6914473,0
6.0,25.1875,0.540826,32.66,2192701.0,1611470725.7651315,0
6.0,18.741999999999997,,,2189124.0,1611470725.8388157,0
6.0,0.5120000000000001,,,2187027.5,1611470725.9125,0
6.0,-18.926,,,2185365.0,1611470725.9861841,0
6.0,-30.62,0.539545,32.66,2185245.5,1611470726.0598683,0
6.0,-14.028,,,2185156.5,1611470726.1335526,0
6.0,7.648000000000001,,,2186062.0,1611470726.2072368,0
6.0,12.8,0.540826,32.65,2187253.5,1611470726.280921,0
6.0,11.370000000000001,,,2189007.0,1611470726.3546052,0
6.0,5.553999999999999,,,2190655.0,1611470726.4282894,0
6.0,20.246000000000002,0.540826,32.65,2190866.5,1611470726.5019736,0
6.0,18.695,,,2186928.5,1611470726.5756578,0
6.0,-20.222,,,2184724.0,1611470726.649342,0
6.0,-43.946000000000005,,,2183966.5,1611470726.7230263,0
6.0,-25.41,0.536983,32.65,2183965.0,1611470726.7967105,0
6.0,8.352,,,2184144.5,1611470726.8703947,0
6.0,16.306,,,2184922.5,1611470726.944079,0
6.0,5.966,0.535702,32.65,2186298.0,1611470727.0177631,0
6.0,1.705,,,2188590.0,1611470727.0914474,0
6.0,8.1,,,2190876.0,1611470727.1651316,0
6.0,22.25,,,2191564.0,1611470727.2388158,0
6.0,-33.292500000000004,0.53314,32.66,2188672.5,1611470727.3125,0
6.0,-62.25200000000001,,,2185601.0,1611470727.3861842,0
6.0,-37.994,,,2184780.5,1611470727.4598684,0
6.0,-18.270000000000003,0.530578,32.66,2185131.5,1611470727.5335526,0
6.0,19.0925,,,2185521.5,1611470727.6072369,0
6.0,38.72,,,2186307.5,1611470727.680921,0
6.0,51.20399999999999,0.535702,32.66,2187667.0,1611470727.7546053,0
6.0,15.874,,,2189310.0,1611470727.8282895,0
6.0,26.080000000000002,,,2191546.5,1611470727.9019737,0
6.0,32.066,,,2192202.0,1611470727.975658,0
6.0,-20.109999999999996,0.536983,32.66,2188731.0,1611470728.0493422,0
6.0,-27.03,,,2187400.0,1611470728.1230264,0
6.0,-15.735999999999999,,,2187509.0,1611470728.1967106,0
6.0,-5.2059999999999995,0.538264,32.65,2187991.0,1611470728.2703948,0
6.0,-23.796,,,2188341.5,1611470728.344079,0
6.0,-31.677500000000002,,,2189416.0,1611470728.4177632,0
6.0,-5.311999999999999,,,2191255.5,1611470728.4914474,0
6.0,18.401999999999997,0.538264,32.65,2193371.5,1611470728.5651317,0
6.0,21.575000000000003,,,2194432.0,1611470728.6388159,0
6.0,14.006,,,2191569.0,1611470728.7125,0
6.0,-1.35,0.536983,32.65,2188974.0,1611470728.7861843,0
6.0,-20.04,,,2188753.0,1611470728.8598685,0
6.0,-21.2825,,,2189181.5,1611470728.9335527,0
6.0,-31.266000000000002,0.53314,32.65,2189531.0,1611470729.007237,0
6.0,-26.689999999999998,,,2190776.5,1611470729.080921,0
6.0,5.3575,,,2192255.0,1611470729.1546052,0
6.0,-1.2380000000000007,,,2193983.5,1611470729.2282894,0
6.0,-12.512,0.53314,32.66,2196110.0,1611470729.3019736,0
6.0,24.94,,,2193897.0,1611470729.3756578,0
6.0,30.439999999999998,,,2190389.0,1611470729.449342,0
6.0,20.509999999999998,0.53314,32.66,2189180.0,1611470729.5230262,0
6.0,14.307999999999998,,,2189091.0,1611470729.5967104,0
6.0,-16.09,,,2189276.5,1611470729.6703947,0
6.0,-46.15,,,2189831.5,1611470729.7440789,0
6.0,-7.748,0.536983,32.66,2191219.5,1611470729.817763,0
6.0,39.116,,,2193074.5,1611470729.8914473,0
6.0,24.5975,,,2195115.5,1611470729.9651315,0
6.0,7.0600000000000005,0.534421,32.66,2196216.0,1611470730.0388157,0
6.0,10.582,,,2193656.5,1611470730.1125,0
6.0,15.6925,,,2190056.5,1611470730.1861842,0
6.0,5.578,0.53314,32.65,2188244.5,1611470730.2598684,0
6.0,-13.951999999999998,,,2188234.0,1611470730.3335526,0
6.0,-34.70799999999999,,,2188547.5,1611470730.4072368,0
6.0,-21.03,,,2189115.5,1611470730.480921,0
6.0,17.466,0.53314,32.65,2190330.0,1611470730.5546052,0
6.0,25.222,,,2191769.5,1611470730.6282895,0
6.0,17.0875,,,2194108.5,1611470730.7019737,0
6.0,17.559999999999995,0.530578,32.65,2196090.0,1611470730.775658,0
6.0,17.362000000000002,,,2197053.0,1611470730.849342,0
6.0,5.601999999999999,,,2194807.0,1611470730.9230263,0
6.0,-10.379999999999999,,,2191078.5,1611470730.9967105,0
6.0,-29.32,0.531859,32.65,2189530.5,1611470731.0703948,0
6.0,-32.122,,,2189365.0,1611470731.144079,0
6.0,4.0024999999999995,,,2189316.0,1611470731.2177632,0
6.0,27.55,0.528016,32.66,2189469.0,1611470731.2914474,0
6.0,19.03,,,2190080.5,1611470731.3651316,0
6.0,14.572000000000003,,,2191961.5,1611470731.4388158,0
6.0,13.315,0.531859,32.66,2194075.0,1611470731.5125,0
6.0,5.034,,,2196422.5,1611470731.5861843,0
6.0,-5.368,,,2197418.0,1611470731.6598685,0
6.0,-20.5075,,,2193802.0,1611470731.7335527,0
6.0,-41.596000000000004,0.534421,32.66,2192435.0,1611470731.807237,0
6.0,-15.996,,,2191965.5,1611470731.8809211,0
6.0,15.838,,,2192285.5,1611470731.9546053,0
6.0,19.61,0.535702,32.66,2192521.5,1611470732.0282896,0
6.0,17.951999999999998,,,2192795.5,1611470732.1019738,0
6.0,16.151999999999997,,,2194296.5,1611470732.175658,0
6.0,16.03,,,2195475.0,1611470732.2493422,0
6.0,1.482,0.552354,32.66,2197052.0,1611470732.3230264,0
6.0,-19.086000000000002,,,2197761.0,1611470732.3967106,0
6.0,-41.705999999999996,,,2194192.5,1611470732.4703948,0
6.0,-25.6575,0.53314,32.66,2192791.0,1611470732.544079,0
6.0,10.744,,,2192981.5,1611470732.617763,0
6.0,17.932,,,2193324.0,1611470732.6914473,0
6.0,10.905000000000001,0.534421,32.66,2193657.0,1611470732.7651315,0
6.0,9.77,,,2194321.5,1611470732.8388157,0
6.0,10.89,,,2196163.0,1611470732.9125,0
6.0,-3.914,,,2198217.5,1611470732.9861841,0
6.0,-16.725,0.53314,32.66,2198482.0,1611470733.0598683,0
6.0,-34.269999999999996,,,2194533.5,1611470733.1335526,0
6.0,-51.044,,,2193177.0,1611470733.2072368,0
6.0,-21.3525,0.531859,32.66,2192614.5,1611470733.280921,0
6.0,11.134,,,2192800.5,1611470733.3546052,0
6.0,17.244,,,2192843.0,1611470733.4282894,0
6.0,23.802,0.531859,32.66,2193707.5,1611470733.5019736,0
6.0,30.349999999999998,,,2195279.0,1611470733.5756578,0
6.0,24.333999999999996,,,2196877.0,1611470733.649342,0
6.0,12.542,,,2198154.5,1611470733.7230263,0
6.0,1.6925000000000001,0.529297,32.66,2195286.0,1611470733.7967105,0
6.0,-17.548000000000002,,,2191430.5,1611470733.8703947,0
6.0,-5.553999999999998,,,2189844.5,1611470733.944079,0
6.0,19.776,0.530578,32.66,2189321.0,1611470734.0177631,0
6.0,18.7175,,,2189130.5,1611470734.0914474,0
6.0,17.762,,,2189258.0,1611470734.1651316,0
6.0,17.064,,,2190167.5,1611470734.2388158,0
6.0,17.805,0.528016,32.63,2191605.5,1611470734.3125,0
6.0,4.886,,,2193364.0,1611470734.3861842,0
6.0,-6.669999999999999,,,2190454.0,1611470734.4598684,0
6.0,-19.65,0.524173,32.63,2186301.0,1611470734.5335526,0
6.0,-31.169999999999998,,,2184667.0,1611470734.6072369,0
6.0,-5.273999999999999,,,2183532.0,1611470734.680921,0
6.0,18.3,0.522892,32.63,2183077.5,1611470734.7546053,0
6.0,16.82,,,2182945.0,1611470734.8282895,0
6.0,17.6525,,,2183696.5,1611470734.9019737,0
6.0,20.258,,,2185102.0,1611470734.975658,0
6.0,12.552,0.539545,32.63,2186321.0,1611470735.0493422,0
6.0,-4.095000000000001,,,2186411.0,1611470735.1230264,0
6.0,-12.209999999999999,,,2181919.0,1611470735.1967106,0
6.0,-18.112000000000002,0.520331,32.63,2178405.0,1611470735.2703948,0
6.0,-36.995999999999995,,,2177263.5,1611470735.344079,0
6.0,-29.34,,,2175987.0,1611470735.4177632,0
6.0,3.364,,,2175409.0,1611470735.4914474,0
6.0,14.27,0.525454,32.63,2175409.0,1611470735.5651317,0
6.0,14.965,,,2175610.0,1611470735.6388159,0
6.0,16.674,,,2176710.5,1611470735.7125,0
6.0,18.262,0.522892,32.63,2178469.5,1611470735.7861843,0
6.0,13.002,,,2178954.0,1611470735.8598685,0
6.0,1.0324999999999995,,,2174452.0,1611470735.9335527,0
6.0,-13.45,0.524173,32.63,2171915.0,1611470736.007237,0
6.0,-20.476,,,2170308.5,1611470736.080921,0
6.0,-28.8475,,,2169526.5,1611470736.1546052,0
6.0,-26.32,,,2168843.5,1611470736.2282894,0
6.0,5.069999999999999,0.51905,32.66,2168918.5,1611470736.3019736,0
6.0,15.712,,,2169945.5,1611470736.3756578,0
6.0,16.305,,,2171077.0,1611470736.449342,0
6.0,16.544,0.516488,32.66,2172234.5,1611470736.5230262,0
6.0,20.098,,,2171103.5,1611470736.5967104,0
6.0,16.305,,,2166910.5,1611470736.6703947,0
6.0,-4.2700000000000005,,,2164977.5,1611470736.7440789,0
6.0,-23.014000000000003,0.51905,32.66,2164738.5,1611470736.817763,0
6.0,-28.908000000000005,,,2164478.0,1611470736.8914473,0
6.0,-36.6625,,,2164416.0,1611470736.9651315,0
6.0,-30.058,0.521612,32.66,2165513.0,1611470737.0388157,0
6.0,-4.924,,,2167217.0,1611470737.1125,0
6.0,2.84,,,2169339.5,1611470737.1861842,0
6.0,3.4899999999999998,0.517769,32.65,2170298.5,1611470737.2598684,0
6.0,6.306,,,2166095.0,1611470737.3335526,0
6.0,9.108,,,2163774.0,1611470737.4072368,0
6.0,8.395000000000001,,,2162449.0,1611470737.480921,0
6.0,-1.7280000000000002,0.521612,32.65,2161830.0,1611470737.5546052,0
6.0,-9.239999999999998,,,2161729.5,1611470737.6282895,0
6.0,-16.855,,,2162200.0,1611470737.7019737,0
6.0,-13.931999999999999,0.520331,32.65,2163587.0,1611470737.775658,0
6.0,11.459999999999999,,,2165032.0,1611470737.849342,0
6.0,18.454,,,2166832.0,1611470737.9230263,0
6.0,21.215,,,2169237.0,1611470737.9967105,0
6.0,17.504,0.515207,32.65,2167865.0,1611470738.0703948,0
6.0,15.658000000000001,,,2164168.5,1611470738.144079,0
6.0,14.0725,,,2162175.0,1611470738.2177632,0
6.0,0.8139999999999998,0.513926,32.65,2161636.5,1611470738.2914474,0
6.0,-13.966,,,2161807.0,1611470738.3651316,0
6.0,-27.528,,,2162020.5,1611470738.4388158,0
6.0,-15.1175,0.512645,32.65,2163196.5,1611470738.5125,0
6.0,6.758,,,2165241.5,1611470738.5861843,0
6.0,10.002,,,2167506.0,1611470738.6598685,0
6.0,8.545,,,2170065.0,1611470738.7335527,0
6.0,6.172,0.512645,32.65,2172285.0,1611470738.807237,0
6.0,7.51,,,2171793.5,1611470738.8809211,0
6.0,-3.882,,,2168317.5,1611470738.9546053,0
6.0,-14.155000000000001,0.516488,32.65,2166605.0,1611470739.0282896,0
6.0,-22.871999999999996,,,2166570.0,1611470739.1019738,0
6.0,-36.658,,,2166991.0,1611470739.175658,0
6.0,-24.3725,,,2167246.0,1611470739.2493422,0
6.0,1.9400000000000002,0.516488,32.66,2168496.5,1611470739.3230264,0
6.0,8.224,,,2170324.5,1611470739.3967106,0
6.0,9.492,,,2172966.5,1611470739.4703948,0
6.0,13.39,0.515207,32.66,2175852.0,1611470739.544079,0
6.0,11.541999999999998,,,2178649.0,1611470739.617763,0
6.0,-1.1300000000000001,,,2178106.0,1611470739.6914473,0
6.0,-14.3275,0.512645,32.66,2175604.5,1611470739.7651315,0
6.0,-20.812,,,2174264.0,1611470739.8388157,0
6.0,-34.96,,,2174342.0,1611470739.9125,0
6.0,-16.526,,,2175143.5,1611470739.9861841,0
6.0,8.6325,0.511364,32.66,2176114.5,1611470740.0598683,0
6.0,11.809999999999999,,,2177802.5,1611470740.1335526,0
6.0,16.056,,,2179572.0,1611470740.2072368,0
6.0,19.2025,0.508802,32.65,2181512.5,1611470740.280921,0
6.0,21.142,,,2184344.0,1611470740.3546052,0
6.0,12.778000000000002,,,2184925.5,1611470740.4282894,0
6.0,-10.0,0.507521,32.65,2182199.5,1611470740.5019736,0
6.0,-26.485,,,2181754.5,1611470740.5756578,0
6.0,-41.794000000000004,,,2182604.5,1611470740.649342,0
6.0,-24.822000000000003,,,2183450.0,1611470740.7230263,0
6.0,2.21,0.508802,32.65,2184146.0,1611470740.7967105,0
6.0,6.603999999999999,,,2185757.0,1611470740.8703947,0
6.0,7.75,,,2187959.0,1611470740.944079,0
6.0,9.947999999999999,0.508802,32.65,2190869.0,1611470741.0177631,0
6.0,8.485,,,2192833.0,1611470741.0914474,0
6.0,-1.548,,,2190854.0,1611470741.1651316,0
6.0,-10.084,,,2188926.0,1611470741.2388158,0
6.0,-21.737499999999997,0.511364,32.63,2188267.5,1611470741.3125,0
6.0,-25.4,,,2188659.5,1611470741.3861842,0
6.0,10.374,,,2189432.5,1611470741.4598684,0
6.0,29.18,0.511364,32.63,2190534.5,1611470741.5335526,0
6.0,25.3675,,,2192452.0,1611470741.6072369,0
6.0,21.862,,,2194814.0,1611470741.680921,0
6.0,24.845999999999997,0.510083,32.63,2197450.0,1611470741.7546053,0
6.0,17.706,,,2197979.0,1611470741.8282895,0
6.0,3.8625,,,2195200.0,1611470741.9019737,0
6.0,-10.7,,,2192623.0,1611470741.975658,0
6.0,-28.814,0.508802,32.63,2191728.0,1611470742.0493422,0
6.0,-10.7775,,,2191678.0,1611470742.1230264,0
6.0,13.138,,,2192108.0,1611470742.1967106,0
6.0,9.639999999999999,0.503678,32.61,2192750.0,1611470742.2703948,0
6.0,10.666,,,2193845.5,1611470742.344079,0
6.0,14.67,,,2195733.0,1611470742.4177632,0
6.0,14.363999999999999,,,2198126.5,1611470742.4914474,0
6.0,-4.422,0.502397,32.61,2198781.5,1611470742.5651317,0
6.0,-17.1525,,,2194873.5,1611470742.6388159,0
6.0,-25.572,,,2193368.0,1611470742.7125,0
6.0,-37.129999999999995,0.501116,32.61,2192351.3333333335,1611470742.7861843,0
6.0,-9.508000000000001,,,2192455.0,1611470742.8598685,0
6.0,11.17,,,2192468.5,1611470742.9335527,0
6.0,10.55,0.507521,32.61,2193309.5,1611470743.007237,0
6.0,18.026000000000003,,,2194792.5,1611470743.080921,0
6.0,21.915,,,2196748.0,1611470743.1546052,0
6.0,17.074,,,2199055.5,1611470743.2282894,0
6.0,4.869999999999999,0.507521,32.63,2199141.0,1611470743.3019736,0
6.0,-8.486,,,2195878.0,1611470743.3756578,0
6.0,-23.655,,,2193568.5,1611470743.449342,0
6.0,-34.230000000000004,0.503678,32.63,2192992.0,1611470743.5230262,0
6.0,-10.852,,,2193293.0,1611470743.5967104,0
6.0,11.012500000000001,,,2193533.0,1611470743.6703947,0
6.0,14.25,,,2194412.0,1611470743.7440789,0
6.0,20.285999999999998,0.503678,32.63,2195533.0,1611470743.817763,0
6.0,23.566,,,2197513.0,1611470743.8914473,0
6.0,18.975,,,2199462.5,1611470743.9651315,0
6.0,9.241999999999999,0.499835,32.63,2198154.5,1611470744.0388157,0
6.0,-5.022,,,2195137.0,1611470744.1125,0
6.0,-14.7475,,,2194420.0,1611470744.1861842,0
6.0,-29.992,0.497274,32.63,2194688.0,1611470744.2598684,0
6.0,-26.077999999999996,,,2194817.0,1611470744.3335526,0
6.0,5.688,,,2195303.0,1611470744.4072368,0
6.0,16.93,,,2196615.5,1611470744.480921,0
6.0,16.630000000000003,0.497274,32.63,2198664.0,1611470744.5546052,0
6.0,21.878,,,2200945.5,1611470744.6282895,0
6.0,24.925,,,2200907.0,1611470744.7019737,0
6.0,21.15,0.495993,32.63,2197931.0,1611470744.775658,0
6.0,8.078,,,2195883.0,1611470744.849342,0
6.0,-9.838000000000001,,,2195538.0,1611470744.9230263,0
6.0,-19.177500000000002,,,2196064.0,1611470744.9967105,0
6.0,-31.032000000000004,0.498555,32.63,2196565.0,1611470745.0703948,0
6.0,-35.214000000000006,,,2197495.0,1611470745.144079,0
6.0,-10.382499999999999,,,2198835.0,1611470745.2177632,0
6.0,5.346,0.501116,32.61,2200812.5,1611470745.2914474,0
6.0,11.057999999999998,,,2203252.5,1611470745.3651316,0
6.0,12.4,,,2202175.5,1611470745.4388158,0
6.0,17.54,0.499835,32.61,2198473.5,1611470745.5125,0
6.0,11.672,,,2197014.0,1611470745.5861843,0
6.0,-4.138,,,2196257.0,1611470745.6598685,0
6.0,-17.38,,,2196390.0,1611470745.7335527,0
6.0,-23.004,0.499835,32.61,2196415.0,1611470745.807237,0
6.0,-33.29,,,2197169.0,1611470745.8809211,0
6.0,-23.77,,,2199020.5,1611470745.9546053,0
6.0,7.57,0.495993,32.61,2200735.0,1611470746.0282896,0
6.0,16.062,,,2202328.0,1611470746.1019738,0
6.0,21.08,,,2202276.5,1611470746.175658,0
6.0,25.830000000000002,,,2198453.0,1611470746.2493422,0
6.0,30.923999999999996,0.494712,32.63,2196352.5,1611470746.3230264,0
6.0,26.368000000000002,,,2195562.5,1611470746.3967106,0
6.0,6.096,,,2195522.5,1611470746.4703948,0
6.0,-10.459999999999999,0.493431,32.63,2195646.0,1611470746.544079,0
6.0,-24.919999999999998,,,2196099.5,1611470746.617763,0
6.0,-14.382,,,2197585.0,1611470746.6914473,0
6.0,12.754999999999999,0.495993,32.63,2199475.0,1611470746.7651315,0
6.0,13.766,,,2201738.0,1611470746.8388157,0
6.0,10.382,,,2202586.0,1611470746.9125,0
6.0,11.642000000000001,,,2199988.0,1611470746.9861841,0
6.0,15.0375,0.493431,32.63,2197755.5,1611470747.0598683,0
6.0,6.071999999999999,,,2196305.5,1611470747.1335526,0
6.0,-10.392,,,2196101.5,1611470747.2072368,0
6.0,-20.310000000000002,0.495993,32.63,2196110.5,1611470747.280921,0
6.0,-40.35,,,2196700.0,1611470747.3546052,0
6.0,-42.428,,,2197746.0,1611470747.4282894,0
6.0,-7.182,0.495993,32.63,2198980.5,1611470747.5019736,0
6.0,8.045,,,2201139.5,1611470747.5756578,0
6.0,15.107999999999999,,,2203472.0,1611470747.649342,0
6.0,23.4,,,2205506.0,1611470747.7230263,0
6.0,19.9025,0.493431,32.63,2202928.0,1611470747.7967105,0
6.0,12.812000000000001,,,2200071.0,1611470747.8703947,0
6.0,2.3040000000000003,,,2199344.0,1611470747.944079,0
6.0,-13.780000000000001,0.490869,32.63,2199089.5,1611470748.0177631,0
6.0,-29.035000000000004,,,2199112.0,1611470748.0914474,0
6.0,-34.888,,,2199405.5,1611470748.1651316,0
6.0,-10.335999999999999,,,2200574.0,1611470748.2388158,0
6.0,16.0875,0.488307,32.63,2202358.0,1611470748.3125,0
6.0,19.896,,,2203817.0,1611470748.3861842,0
6.0,20.106,,,2205503.5,1611470748.4598684,0
6.0,22.296000000000003,0.488307,32.63,2207417.0,1611470748.5335526,0
6.0,18.0775,,,2205004.0,1611470748.6072369,0
6.0,6.42,,,2202379.0,1611470748.680921,0
6.0,-10.02,0.490869,32.63,2201702.5,1611470748.7546053,0
6.0,-22.740000000000002,,,2201724.0,1611470748.8282895,0
6.0,-38.275,,,2201736.0,1611470748.9019737,0
6.0,-24.568,,,2202101.0,1611470748.975658,0
6.0,10.751999999999999,0.493431,32.63,2203132.5,1611470749.0493422,0
6.0,15.2325,,,2204982.0,1611470749.1230264,0
6.0,10.881999999999998,,,2207048.5,1611470749.1967106,0
6.0,13.258,0.493431,32.61,2207736.0,1611470749.2703948,0
6.0,15.786000000000001,,,2205032.0,1611470749.344079,0
6.0,4.4575,,,2202785.5,1611470749.4177632,0
6.0,-15.738,,,2201953.0,1611470749.4914474,0
6.0,-31.222,0.493431,32.61,2201857.0,1611470749.5651317,0
6.0,-48.477500000000006,,,2202077.5,1611470749.6388159,0
6.0,-36.251999999999995,,,2202713.5,1611470749.7125,0
6.0,1.3020000000000003,0.488307,32.61,2204014.0,1611470749.7861843,0
6.0,7.9,,,2205289.0,1611470749.8598685,0
6.0,11.5125,,,2207375.5,1611470749.9335527,0
6.0,20.067999999999998,0.490869,32.61,2208966.5,1611470750.007237,0
6.0,20.438,,,2205658.5,1611470750.080921,0
6.0,5.93,,,2201943.0,1611470750.1546052,0
6.0,-3.81,,,2200625.0,1611470750.2282894,0
6.0,-17.678000000000004,0.488307,32.61,2199835.5,1611470750.3019736,0
6.0,-16.866,,,2199626.0,1611470750.3756578,0
6.0,14.6025,,,2199563.0,1611470750.449342,0
6.0,30.086000000000002,0.490869,32.61,2200235.0,1611470750.5230262,0
6.0,30.068,,,2201819.5,1611470750.5967104,0
6.0,24.222499999999997,,,2203656.0,1611470750.6703947,0
6.0,25.778,,,2205309.0,1611470750.7440789,0
6.0,21.166,0.49215,32.61,2204202.0,1611470750.817763,0
6.0,6.775999999999999,,,2199648.5,1611470750.8914473,0
6.0,-15.975000000000001,,,2196841.5,1611470750.9651315,0
6.0,-30.059999999999995,0.494712,32.61,2195640.0,1611470751.0388157,0
6.0,-2.6879999999999997,,,2195350.5,1611470751.1125,0
6.0,14.3725,,,2195009.0,1611470751.1861842,0
6.0,8.22,0.490869,32.61,2195387.0,1611470751.2598684,0
6.0,2.8039999999999994,,,2196485.5,1611470751.3335526,0
6.0,4.84,,,2198119.0,1611470751.4072368,0
6.0,-5.6175,,,2200277.5,1611470751.480921,0
6.0,-20.522,0.502397,32.61,2200000.0,1611470751.5546052,0
6.0,-41.964,,,2196495.0,1611470751.6282895,0
6.0,-45.955,,,2193912.5,1611470751.7019737,0
6.0,-8.219999999999999,0.487026,32.61,2192179.5,1611470751.775658,0
6.0,20.444,,,2191733.5,1611470751.849342,0
6.0,19.264,,,2191310.5,1611470751.9230263,0
6.0,20.2275,,,2191578.5,1611470751.9967105,0
6.0,21.387999999999998,0.487026,32.61,2192709.0,1611470752.0703948,0
6.0,11.586000000000002,,,2193970.0,1611470752.144079,0
6.0,-2.4625000000000004,,,2195476.5,1611470752.2177632,0
6.0,-19.246000000000002,0.489588,32.61,2196705.5,1611470752.2914474,0
6.0,-36.2,,,2192631.0,1611470752.3651316,0
6.0,-8.376000000000001,,,2189717.5,1611470752.4388158,0
6.0,18.395,0.489588,32.61,2188481.0,1611470752.5125,0
6.0,20.845999999999997,,,2188271.0,1611470752.5861843,0
6.0,20.96,,,2188279.5,1611470752.6598685,0
6.0,25.942500000000003,,,2188338.0,1611470752.7335527,0
6.0,25.524,0.488307,32.61,2189317.0,1611470752.807237,0
6.0,7.4079999999999995,,,2191057.5,1611470752.8809211,0
6.0,-12.408,,,2192704.5,1611470752.9546053,0
6.0,-21.259999999999998,0.485745,32.61,2191232.0,1611470753.0282896,0
6.0,-34.035999999999994,,,2187746.0,1611470753.1019738,0
6.0,-16.236,,,2185876.5,1611470753.175658,0
6.0,6.0725,,,2185352.0,1611470753.2493422,0
6.0,10.575999999999999,0.481902,32.61,2185060.0,1611470753.3230264,0
6.0,16.695999999999998,,,2185203.5,1611470753.3967106,0
6.0,18.573999999999998,,,2185639.0,1611470753.4703948,0
6.0,10.9775,0.484464,32.61,2186796.0,1611470753.544079,0
6.0,3.7120000000000006,,,2188362.5,1611470753.617763,0
6.0,-10.040000000000001,,,2185856.0,1611470753.6914473,0
6.0,-19.48,0.480621,32.61,2181505.5,1611470753.7651315,0
6.0,-32.462,,,2179491.0,1611470753.8388157,0
6.0,-37.896,,,2178888.5,1611470753.9125,0
6.0,-2.444,,,2178223.0,1611470753.9861841,0
6.0,20.7175,0.481902,32.61,2178137.5,1611470754.0598683,0
6.0,24.0,,,2178881.0,1611470754.1335526,0
6.0,24.189999999999998,,,2180331.0,1611470754.2072368,0
6.0,26.8125,0.484464,32.61,2181195.0,1611470754.280921,0
6.0,29.366000000000003,,,2177177.0,1611470754.3546052,0
6.0,19.316,,,2173234.0,1611470754.4282894,0
6.0,6.564,0.481902,32.61,2170930.5,1611470754.5019736,0
6.0,-4.7375,,,2169270.5,1611470754.5756578,0
6.0,-21.116,,,2168275.0,1611470754.649342,0
6.0,1.2099999999999997,,,2167643.0,1611470754.7230263,0
6.0,26.7175,0.484464,32.61,2167966.0,1611470754.7967105,0
6.0,18.566000000000003,,,2168706.5,1611470754.8703947,0
6.0,16.041999999999998,,,2170193.0,1611470754.944079,0
6.0,21.857999999999997,0.480621,32.61,2169193.5,1611470755.0177631,0
6.0,21.59,,,2164018.5,1611470755.0914474,0
6.0,9.947999999999999,,,2160440.0,1611470755.1651316,0
6.0,-5.802,,,2158660.5,1611470755.2388158,0
6.0,-17.825000000000003,0.476778,32.61,2158172.0,1611470755.3125,0
6.0,-27.340000000000003,,,2157323.0,1611470755.3861842,0
6.0,-41.5,,,2157799.5,1611470755.4598684,0
6.0,-25.922000000000004,0.478059,32.61,2158859.5,1611470755.5335526,0
6.0,1.02,,,2160458.5,1611470755.6072369,0
6.0,9.216,,,2162332.5,1611470755.680921,0
6.0,11.082,0.478059,32.61,2162127.0,1611470755.7546053,0
6.0,14.528,,,2158245.5,1611470755.8282895,0
6.0,15.7125,,,2154520.5,1611470755.9019737,0
6.0,8.144,,,2152563.0,1611470755.975658,0
6.0,-4.196,0.478059,32.61,2152031.5,1611470756.0493422,0
6.0,-13.5275,,,2151582.5,1611470756.1230264,0
6.0,-22.272,,,2151793.0,1611470756.1967106,0
6.0,-35.152,0.480621,32.61,2152592.5,1611470756.2703948,0
6.0,-21.912,,,2154295.5,1611470756.344079,0
6.0,7.829999999999999,,,2156478.5,1611470756.4177632,0
6.0,13.581999999999999,,,2158661.0,1611470756.4914474,0
6.0,13.368,0.47934,32.61,2157212.0,1611470756.5651317,0
6.0,18.785,,,2153293.5,1611470756.6388159,0
6.0,31.4,,,2151639.0,1611470756.7125,0
6.0,15.841999999999999,0.47934,32.61,2151001.5,1611470756.7861843,0
6.0,-5.9719999999999995,,,2150890.0,1611470756.8598685,0
6.0,-7.2725,,,2150620.0,1611470756.9335527,0
6.0,-10.108,0.476778,32.61,2151670.5,1611470757.007237,0
6.0,-32.660000000000004,,,2153411.0,1611470757.080921,0
6.0,-43.47,,,2154954.0,1611470757.1546052,0
6.0,-9.016000000000002,,,2156796.5,1611470757.2282894,0
6.0,3.0279999999999996,0.475498,32.61,2157936.5,1611470757.3019736,0
6.0,-7.428,,,2154227.5,1611470757.3756578,0
6.0,4.1525,,,2152027.0,1611470757.449342,0
6.0,14.065999999999999,0.472936,32.61,2151626.5,1611470757.5230262,0
6.0,1.7359999999999995,,,2151869.0,1611470757.5967104,0
6.0,-26.287499999999998,,,2151939.0,1611470757.6703947,0
6.0,-29.232,,,2152894.0,1611470757.7440789,0
6.0,-27.034,0.474217,32.61,2154867.0,1611470757.817763,0
6.0,-29.432,,,2157052.5,1611470757.8914473,0
6.0,-3.11,,,2159905.5,1611470757.9651315,0
6.0,20.613999999999997,0.47934,32.61,2162115.0,1611470758.0388157,0
6.0,25.232,,,2163088.0,1611470758.1125,0
6.0,27.75,,,2159679.5,1611470758.1861842,0
6.0,29.576,0.474217,32.59,2156950.0,1611470758.2598684,0
6.0,28.092000000000002,,,2155905.0,1611470758.3335526,0
6.0,15.441999999999998,,,2156068.5,1611470758.4072368,0
6.0,2.9325,,,2156509.0,1611470758.480921,0
6.0,-11.932,0.475498,32.59,2157355.0,1611470758.5546052,0
6.0,-10.011999999999999,,,2158683.0,1611470758.6282895,0
6.0,11.99,,,2161090.0,1611470758.7019737,0
6.0,16.016000000000002,0.472936,32.59,2163499.5,1611470758.775658,0
6.0,10.599999999999998,,,2166441.0,1611470758.849342,0
6.0,0.976,,,2166827.0,1611470758.9230263,0
6.0,1.4475,,,2164073.0,1611470758.9967105,0
6.0,0.016000000000000014,0.474217,32.59,2162135.0,1611470759.0703948,0
6.0,-15.684000000000001,,,2160946.5,1611470759.144079,0
6.0,-22.247500000000002,,,2161140.0,1611470759.2177632,0
6.0,-38.136,0.471655,32.59,2161429.5,1611470759.2914474,0
6.0,-33.182,,,2162568.5,1611470759.3651316,0
6.0,-5.172,,,2164139.0,1611470759.4388158,0
6.0,-0.2325,0.472936,32.59,2165842.0,1611470759.5125,0
6.0,3.8519999999999994,,,2168437.5,1611470759.5861843,0
6.0,10.290000000000001,,,2171426.5,1611470759.6598685,0
6.0,10.9175,,,2173386.0,1611470759.7335527,0
6.0,-2.728,0.475498,32.59,2170216.0,1611470759.807237,0
6.0,-14.815999999999999,,,2167899.5,1611470759.8809211,0
6.0,-29.036,,,2167575.0,1611470759.9546053,0
6.0,-36.0325,0.475498,32.59,2167631.0,1611470760.0282896,0
6.0,-7.213999999999999,,,2168310.5,1611470760.1019738,0
6.0,9.162,,,2168979.5,1611470760.175658,0
6.0,6.7475000000000005,,,2170802.5,1611470760.2493422,0
6.0,11.666,0.476778,32.57,2173290.5,1611470760.3230264,0
6.0,17.412,,,2175219.0,1611470760.3967106,0
6.0,10.738,,,2177328.5,1611470760.4703948,0
6.0,0.25750000000000006,0.470374,32.57,2178524.0,1611470760.544079,0
6.0,-7.741999999999999,,,2175356.0,1611470760.617763,0
6.0,-26.6,,,2173664.5,1611470760.6914473,0
6.0,-29.82,0.471655,32.57,2173629.5,1611470760.7651315,0
6.0,-4.295999999999999,,,2174049.0,1611470760.8388157,0
6.0,5.640000000000001,,,2174242.5,1611470760.9125,0
6.0,6.808,,,2175188.5,1611470760.9861841,0
6.0,8.105,0.471655,32.57,2177025.5,1611470761.0598683,0
6.0,13.498,,,2179229.0,1611470761.1335526,0
6.0,1.8560000000000003,,,2181142.0,1611470761.2072368,0
6.0,-10.1675,0.471655,32.57,2179729.0,1611470761.280921,0
6.0,-16.658,,,2177254.0,1611470761.3546052,0
6.0,-36.79,,,2175765.5,1611470761.4282894,0
6.0,-17.368000000000002,0.474217,32.57,2175989.0,1611470761.5019736,0
6.0,16.65,,,2176460.5,1611470761.5756578,0
6.0,22.44,,,2177477.0,1611470761.649342,0
6.0,22.336,,,2179042.0,1611470761.7230263,0
6.0,28.724999999999998,0.474217,32.57,2180650.0,1611470761.7967105,0
6.0,33.245999999999995,,,2182605.0,1611470761.8703947,0
6.0,25.312,,,2184238.5,1611470761.944079,0
6.0,11.532,0.472936,32.57,2180753.5,1611470762.0177631,0
6.0,-9.537500000000001,,,2177473.5,1611470762.0914474,0
6.0,-15.232,,,2176260.5,1611470762.1651316,0
6.0,15.16,,,2176103.0,1611470762.2388158,0
6.0,29.865,0.472936,32.59,2176167.0,1611470762.3125,0
6.0,25.413999999999998,,,2176333.5,1611470762.3861842,0
6.0,19.988,,,2177784.0,1611470762.4598684,0
6.0,21.220000000000002,0.467812,32.59,2179768.0,1611470762.5335526,0
6.0,13.180000000000001,,,2181491.5,1611470762.6072369,0
6.0,-4.965999999999999,,,2180090.0,1611470762.680921,0
6.0,-17.73,0.466531,32.59,2176431.5,1611470762.7546053,0
6.0,-36.128,,,2173754.0,1611470762.8282895,0
6.0,-34.137499999999996,,,2172671.5,1611470762.9019737,0
6.0,-6.564,,,2172497.0,1611470762.975658,0
6.0,5.803999999999999,0.46525,32.59,2172390.5,1611470763.0493422,0
6.0,8.545,,,2173433.0,1611470763.1230264,0
6.0,12.296000000000001,,,2174719.0,1611470763.1967106,0
6.0,15.266,0.469093,32.57,2176186.0,1611470763.2703948,0
6.0,5.13,,,2177711.5,1611470763.344079,0
6.0,-9.025,,,2174255.0,1611470763.4177632,0
6.0,-18.951999999999998,,,2170655.5,1611470763.4914474,0
6.0,-28.932,0.470374,32.57,2169059.0,1611470763.5651317,0
6.0,-35.6975,,,2168668.0,1611470763.6388159,0
6.0,-25.044,,,2168733.0,1611470763.7125,0
6.0,2.6399999999999997,0.470374,32.57,2168654.0,1611470763.7861843,0
6.0,11.262,,,2169713.0,1611470763.8598685,0
6.0,18.9775,,,2171526.5,1611470763.9335527,0
6.0,26.932000000000006,0.467812,32.57,2173657.5,1611470764.007237,0
6.0,28.947999999999997,,,2174596.0,1611470764.080921,0
6.0,20.725,,,2172247.0,1611470764.1546052,0
6.0,8.532,,,2168332.5,1611470764.2282894,0
6.0,-1.1960000000000002,0.46525,32.57,2166834.5,1611470764.3019736,0
6.0,-4.5920000000000005,,,2166491.5,1611470764.3756578,0
6.0,-15.9,,,2166314.5,1611470764.449342,0
6.0,-29.607999999999997,0.463969,32.57,2166558.0,1611470764.5230262,0
6.0,-4.064,,,2167203.0,1611470764.5967104,0
6.0,8.9775,,,2168848.5,1611470764.6703947,0
6.0,7.556,,,2170877.0,1611470764.7440789,0
6.0,12.236,0.466531,32.57,2169507.0,1611470764.817763,0
6.0,16.928,,,2165888.5,1611470764.8914473,0
6.0,8.9525,,,2164548.5,1611470764.9651315,0
6.0,-5.046,0.466531,32.57,2164581.0,1611470765.0388157,0
6.0,-19.444,,,2164733.5,1611470765.1125,0
6.0,-25.2325,,,2164885.0,1611470765.1861842,0
6.0,-29.362000000000002,0.470374,32.59,2166218.5,1611470765.2598684,0
6.0,-38.541999999999994,,,2168030.5,1611470765.3335526,0
6.0,-23.770000000000003,,,2170477.5,1611470765.4072368,0
6.0,-3.08,,,2172163.0,1611470765.480921,0
6.0,4.05,0.467812,32.59,2169975.0,1611470765.5546052,0
6.0,14.062000000000001,,,2165974.5,1611470765.6282895,0
6.0,18.4225,,,2163968.0,1611470765.7019737,0
6.0,21.898,0.466531,32.59,2163315.5,1611470765.775658,0
6.0,16.255999999999997,,,2163448.0,1611470765.849342,0
6.0,5.572,,,2163588.0,1611470765.9230263,0
6.0,-1.3775,,,2164430.5,1611470765.9967105,0
6.0,-9.804000000000002,0.467812,32.59,2166294.5,1611470766.0703948,0
6.0,-2.466,,,2168421.0,1611470766.144079,0
6.0,17.982499999999998,,,2171017.0,1611470766.2177632,0
6.0,21.628000000000004,0.463969,32.59,2171365.5,1611470766.2914474,0
6.0,23.626,,,2167172.5,1611470766.3651316,0
6.0,21.412,,,2165036.0,1611470766.4388158,0
6.0,17.4125,0.462688,32.59,2163828.0,1611470766.5125,0
6.0,8.668000000000001,,,2163382.0,1611470766.5861843,0
6.0,-7.598000000000001,,,2163296.5,1611470766.6598685,0
6.0,-19.2175,,,2164053.5,1611470766.7335527,0
6.0,-34.974000000000004,0.462688,32.59,2165534.5,1611470766.807237,0
6.0,-29.276000000000003,,,2167774.0,1611470766.8809211,0
6.0,-1.1300000000000001,,,2169725.0,1611470766.9546053,0
6.0,4.005,0.46525,32.59,2171563.5,1611470767.0282896,0
6.0,6.784000000000001,,,2174434.5,1611470767.1019738,0
6.0,11.006,,,2172940.5,1611470767.175658,0
6.0,10.317499999999999,,,2169563.0,1611470767.2493422,0
6.0,0.938,0.466531,32.57,2167764.0,1611470767.3230264,0
6.0,-10.328,,,2167793.5,1611470767.3967106,0
6.0,-20.1,,,2167830.0,1611470767.4703948,0
6.0,-35.78,0.46525,32.57,2168704.0,1611470767.544079,0
6.0,-21.128,,,2170007.0,1611470767.617763,0
6.0,5.210000000000001,,,2171512.0,1611470767.6914473,0
6.0,9.120000000000001,0.466531,32.57,2174166.5,1611470767.7651315,0
6.0,9.331999999999999,,,2176752.5,1611470767.8388157,0
6.0,12.372,,,2179468.5,1611470767.9125,0
6.0,14.898000000000001,,,2178164.0,1611470767.9861841,0
6.0,5.34,0.463969,32.57,2175075.5,1611470768.0598683,0
6.0,-6.292,,,2174023.5,1611470768.1335526,0
6.0,-21.220000000000002,,,2174253.5,1611470768.2072368,0
6.0,-34.1125,0.461407,32.59,2174450.0,1611470768.280921,0
6.0,-14.508000000000001,,,2174848.0,1611470768.3546052,0
6.0,11.836000000000002,,,2176207.0,1611470768.4282894,0
6.0,13.734,0.460126,32.59,2178187.0,1611470768.5019736,0
6.0,18.4125,,,2180535.0,1611470768.5756578,0
6.0,20.262,,,2182964.5,1611470768.649342,0
6.0,13.459999999999999,,,2182414.0,1611470768.7230263,0
6.0,-2.7375,0.458845,32.59,2179965.0,1611470768.7967105,0
6.0,-19.974,,,2178165.0,1611470768.8703947,0
6.0,-34.048,,,2178341.5,1611470768.944079,0
6.0,-40.45399999999999,0.46525,32.59,2179054.0,1611470769.0177631,0
6.0,-11.385,,,2179828.5,1611470769.0914474,0
6.0,5.66,,,2181439.0,1611470769.1651316,0
6.0,6.884,,,2183203.0,1611470769.2388158,0
6.0,11.3725,0.463969,32.57,2184859.0,1611470769.3125,0
6.0,12.894,,,2187315.0,1611470769.3861842,0
6.0,10.129999999999999,,,2186002.5,1611470769.4598684,0
6.0,0.704,0.462688,32.57,2182457.5,1611470769.5335526,0
6.0,-12.3575,,,2180996.5,1611470769.6072369,0
6.0,-22.206,,,2180867.0,1611470769.680921,0
6.0,4.984,0.461407,32.57,2180920.5,1611470769.7546053,0
6.0,31.032,,,2181296.0,1611470769.8282895,0
6.0,27.575000000000003,,,2182405.0,1611470769.9019737,0
6.0,20.524,,,2184387.5,1611470769.975658,0
6.0,21.444,0.461407,32.57,2186548.5,1611470770.0493422,0
6.0,20.8625,,,2188527.0,1611470770.1230264,0
6.0,10.1,,,2186850.5,1611470770.1967106,0
6.0,-7.132,0.457564,32.59,2182871.0,1611470770.2703948,0
6.0,-20.845999999999997,,,2180980.0,1611470770.344079,0
6.0,1.9825000000000006,,,2180585.0,1611470770.4177632,0
6.0,22.922,,,2180754.0,1611470770.4914474,0
6.0,18.168,0.460126,32.59,2181215.5,1611470770.5651317,0
6.0,16.205,,,2182368.0,1611470770.6388159,0
6.0,16.644,,,2183757.5,1611470770.7125,0
6.0,5.502000000000001,0.461407,32.59,2185841.5,1611470770.7861843,0
6.0,-11.440000000000001,,,2187910.5,1611470770.8598685,0
6.0,-22.259999999999998,,,2184806.0,1611470770.9335527,0
6.0,-37.13,0.46525,32.59,2181625.5,1611470771.007237,0
6.0,-21.529999999999998,,,2180439.0,1611470771.080921,0
6.0,7.092499999999999,,,2180330.0,1611470771.1546052,0
6.0,9.511999999999999,,,2180443.5,1611470771.2282894,0
6.0,5.680000000000001,0.46525,32.57,2180836.5,1611470771.3019736,0
6.0,12.8,,,2182219.0,1611470771.3756578,0
6.0,16.072499999999998,,,2184244.5,1611470771.449342,0
6.0,-0.1200000000000001,0.463969,32.57,2185797.0,1611470771.5230262,0
6.0,-10.888,,,2187150.5,1611470771.5967104,0
6.0,-26.8075,,,2183911.0,1611470771.6703947,0
6.0,-27.354000000000003,,,2181184.0,1611470771.7440789,0
6.0,4.458,0.460126,32.57,2180219.5,1611470771.817763,0
6.0,11.302000000000001,,,2180547.0,1611470771.8914473,0
6.0,9.8275,,,2180684.5,1611470771.9651315,0
6.0,13.388000000000002,0.456283,32.57,2181388.0,1611470772.0388157,0
6.0,16.304,,,2182363.5,1611470772.1125,0
6.0,8.86,,,2184162.5,1611470772.1861842,0
6.0,-1.4140000000000001,0.456283,32.57,2185879.0,1611470772.2598684,0
6.0,-11.272,,,2183084.0,1611470772.3335526,0
6.0,-26.965999999999998,,,2180647.5,1611470772.4072368,0
6.0,-23.98,,,2180291.0,1611470772.480921,0
6.0,1.302,0.453721,32.57,2180486.5,1611470772.5546052,0
6.0,8.516,,,2180699.5,1611470772.6282895,0
6.0,7.9350000000000005,,,2181351.0,1611470772.7019737,0
6.0,12.528,0.456283,32.57,2182881.5,1611470772.775658,0
6.0,15.495999999999999,,,2185034.5,1611470772.849342,0
6.0,2.6099999999999994,,,2186234.0,1611470772.9230263,0
6.0,-17.635,,,2183487.5,1611470772.9967105,0
6.0,-23.516000000000002,0.457564,32.57,2180275.0,1611470773.0703948,0
6.0,-36.462,,,2179567.5,1611470773.144079,0
6.0,-33.11,,,2179611.5,1611470773.2177632,0
6.0,0.05600000000000023,0.458845,32.57,2179866.0,1611470773.2914474,0
6.0,8.966,,,2181006.5,1611470773.3651316,0
6.0,8.774000000000001,,,2182226.0,1611470773.4388158,0
6.0,8.037500000000001,0.458845,32.57,2183936.5,1611470773.5125,0
6.0,10.142,,,2185738.5,1611470773.5861843,0
6.0,6.906000000000001,,,2182854.5,1611470773.6598685,0
6.0,-0.4749999999999999,,,2179592.5,1611470773.7335527,0
6.0,-9.93,0.458845,32.57,2178114.0,1611470773.807237,0
6.0,-10.546,,,2177908.0,1611470773.8809211,0
6.0,18.612000000000002,,,2177940.5,1611470773.9546053,0
6.0,28.267500000000002,0.452441,32.57,2178343.5,1611470774.0282896,0
6.0,20.836000000000002,,,2179543.0,1611470774.1019738,0
6.0,14.238,,,2181538.0,1611470774.175658,0
6.0,17.4225,,,2183470.5,1611470774.2493422,0
6.0,14.254000000000001,0.453721,32.59,2182369.0,1611470774.3230264,0
6.0,7.0200000000000005,,,2179325.0,1611470774.3967106,0
6.0,-13.931999999999999,,,2176762.0,1611470774.4703948,0
6.0,-18.2075,0.45116,32.59,2176038.5,1611470774.544079,0
6.0,11.354,,,2175966.5,1611470774.617763,0
6.0,20.856,,,2176359.0,1611470774.6914473,0
6.0,10.9375,0.457564,32.59,2177561.5,1611470774.7651315,0
6.0,7.348000000000001,,,2178898.0,1611470774.8388157,0
6.0,10.452,,,2180433.5,1611470774.9125,0
6.0,0.47200000000000025,,,2182965.0,1611470774.9861841,0
6.0,-15.5125,0.457564,32.59,2182455.5,1611470775.0598683,0
6.0,-24.504,,,2178770.0,1611470775.1335526,0
6.0,-37.56,,,2176852.0,1611470775.2072368,0
6.0,-15.8475,0.460126,32.57,2176564.0,1611470775.280921,0
6.0,4.284000000000001,,,2176922.5,1611470775.3546052,0
6.0,3.222,,,2177170.0,1611470775.4282894,0
6.0,5.786,0.455002,32.57,2178515.5,1611470775.5019736,0
6.0,8.4025,,,2180374.0,1611470775.5756578,0
6.0,8.360000000000001,,,2182570.5,1611470775.649342,0
6.0,-8.724,,,2184486.0,1611470775.7230263,0
6.0,-19.630000000000003,0.449879,32.57,2184387.5,1611470775.7967105,0
6.0,-30.308,,,2181174.0,1611470775.8703947,0
6.0,-14.969999999999999,,,2179702.5,1611470775.944079,0
6.0,11.402,0.449879,32.57,2179847.0,1611470776.0177631,0
6.0,4.297499999999999,,,2180374.5,1611470776.0914474,0
6.0,8.478,,,2181268.0,1611470776.1651316,0
6.0,19.294,,,2182511.0,1611470776.2388158,0
6.0,9.845,0.447317,32.55,2184097.5,1611470776.3125,0
6.0,0.4039999999999999,,,2186679.5,1611470776.3861842,0
6.0,-8.794,,,2187789.5,1611470776.4598684,0
6.0,-27.464,0.448598,32.55,2184977.0,1611470776.5335526,0
6.0,-13.900000000000002,,,2184225.0,1611470776.6072369,0
6.0,13.830000000000002,,,2184457.0,1611470776.680921,0
6.0,8.675999999999998,0.453721,32.55,2185456.0,1611470776.7546053,0
6.0,6.654000000000001,,,2186207.0,1611470776.8282895,0
6.0,13.277500000000002,,,2187945.0,1611470776.9019737,0
6.0,5.124,,,2190363.5,1611470776.975658,0
6.0,-4.302,0.453721,32.55,2193097.5,1611470777.0493422,0
6.0,-18.585,,,2193599.0,1611470777.1230264,0
6.0,-32.07,,,2191296.0,1611470777.1967106,0
6.0,-5.106000000000002,0.452441,32.57,2189861.5,1611470777.2703948,0
6.0,15.707999999999998,,,2190114.0,1611470777.344079,0
6.0,6.2375,,,2191296.5,1611470777.4177632,0
6.0,3.964,,,2192320.5,1611470777.4914474,0
6.0,12.66,0.452441,32.57,2194273.5,1611470777.5651317,0
6.0,4.71,,,2196018.0,1611470777.6388159,0
6.0,-4.794,,,2198175.5,1611470777.7125,0
6.0,-22.52,0.449879,32.57,2200325.5,1611470777.7861843,0
6.0,-23.154,,,2197327.5,1611470777.8598685,0
6.0,5.300000000000001,,,2195492.5,1611470777.9335527,0
6.0,9.408,0.453721,32.57,2195085.0,1611470778.007237,0
6.0,-1.8960000000000001,,,2195581.0,1611470778.080921,0
6.0,-0.0050000000000001155,,,2196182.5,1611470778.1546052,0
6.0,1.8060000000000003,,,2197211.5,1611470778.2282894,0
6.0,-10.174000000000001,0.448598,32.57,2199169.5,1611470778.3019736,0
6.0,-23.462,,,2201481.5,1611470778.3756578,0
6.0,-40.485,,,2202983.5,1611470778.449342,0
6.0,-30.387999999999998,0.45116,32.57,2200430.0,1611470778.5230262,0
6.0,3.816,,,2198602.0,1611470778.5967104,0
6.0,5.4425,,,2197676.0,1611470778.6703947,0
6.0,3.5420000000000003,,,2198086.0,1611470778.7440789,0
6.0,11.453999999999999,0.452441,32.57,2198503.5,1611470778.817763,0
6.0,10.736,,,2199386.0,1611470778.8914473,0
6.0,7.0874999999999995,,,2200484.0,1611470778.9651315,0
6.0,-6.351999999999999,0.45116,32.57,2202186.0,1611470779.0388157,0
6.0,-0.8360000000000003,,,2204655.5,1611470779.1125,0
6.0,25.4875,,,2205036.0,1611470779.1861842,0
6.0,32.35,0.452441,32.57,2201798.5,1611470779.2598684,0
6.0,28.968,,,2200599.5,1611470779.3335526,0
6.0,29.863999999999997,,,2200385.0,1611470779.4072368,0
6.0,32.49249999999999,,,2201111.0,1611470779.480921,0
6.0,31.732,0.447317,32.57,2201869.5,1611470779.5546052,0
6.0,26.606,,,2203201.5,1611470779.6282895,0
6.0,34.025,,,2205506.5,1611470779.7019737,0
6.0,74.792,0.452441,32.57,2207454.5,1611470779.775658,0
6.0,134.55399999999997,,,2206307.0,1611470779.849342,0
6.0,94.996,,,2203694.5,1611470779.9230263,0
6.0,49.11,,,2202394.0,1611470779.9967105,0
6.0,19.438,0.448598,32.57,2202791.5,1611470780.0703948,0
6.0,-69.158,,,2203416.0,1611470780.144079,0
6.0,-155.3875,,,2204561.5,1611470780.2177632,0
6.0,-169.14000000000001,0.45116,32.57,2205817.0,1611470780.2914474,0
6.0,-130.586,,,2207526.0,1611470780.3651316,0
6.0,-78.99600000000001,,,2209713.5,1611470780.4388158,0
6.0,-60.612500000000004,0.449879,32.57,2207482.5,1611470780.5125,0
6.0,-45.604,,,2205432.0,1611470780.5861843,0
6.0,-32.046,,,2205344.0,1611470780.6598685,0
6.0,-12.842500000000001,,,2206019.5,1611470780.7335527,0
6.0,0.15,0.449879,32.57,2206635.0,1611470780.807237,0
6.0,6.0120000000000005,,,2207682.0,1611470780.8809211,0
6.0,3.0220000000000002,,,2209504.5,1611470780.9546053,0
6.0,26.445,0.447317,32.57,2211848.0,1611470781.0282896,0
6.0,55.25599999999999,,,2212550.0,1611470781.1019738,0
6.0,53.274,,,2209289.5,1611470781.175658,0
6.0,48.095,,,2208503.0,1611470781.2493422,0
6.0,48.894,0.448598,32.57,2208718.0,1611470781.3230264,0
6.0,31.929999999999996,,,2209475.0,1611470781.3967106,0
6.0,11.721999999999998,,,2210115.0,1611470781.4703948,0
6.0,-12.4225,0.448598,32.57,2211286.5,1611470781.544079,0
6.0,-29.241999999999997,,,2213285.5,1611470781.617763,0
6.0,-1.1679999999999997,,,2215059.0,1611470781.6914473,0
6.0,4.800000000000001,0.45116,32.57,2213788.0,1611470781.7651315,0
6.0,-13.544,,,2211145.0,1611470781.8388157,0
6.0,-8.154,,,2211003.0,1611470781.9125,0
6.0,-7.302000000000001,,,2212311.0,1611470781.9861841,0
6.0,-24.299999999999997,0.45116,32.57,2213106.5,1611470782.0598683,0
6.0,-29.552,,,2214859.5,1611470782.1335526,0
6.0,-37.11,,,2216610.0,1611470782.2072368,0
6.0,-43.2275,0.453721,32.55,2218655.0,1611470782.280921,0
6.0,-8.099999999999998,,,2217650.0,1611470782.3546052,0
6.0,16.762,,,2214503.0,1611470782.4282894,0
6.0,13.766,0.452441,32.55,2214207.0,1611470782.5019736,0
6.0,17.93,,,2216073.0,1611470782.5756578,0
6.0,22.011999999999997,,,2219407.0,1611470782.649342,0
6.0,15.368,,,2222621.0,1611470782.7230263,0
6.0,10.1125,0.447317,32.55,2225737.5,1611470782.7967105,0
6.0,-4.702,,,2229081.0,1611470782.8703947,0
6.0,-2.376,,,2229273.5,1611470782.944079,0
6.0,31.484,0.449879,32.55,2225832.5,1611470783.0177631,0
6.0,31.167499999999997,,,2224365.0,1611470783.0914474,0
6.0,21.562,,,2224391.0,1611470783.1651316,0
6.0,18.432,,,2224993.5,1611470783.2388158,0
6.0,21.152500000000003,0.446036,32.55,2225544.5,1611470783.3125,0
6.0,14.768,,,2226724.0,1611470783.3861842,0
6.0,3.806,,,2228817.0,1611470783.4598684,0
6.0,-20.874,0.45116,32.55,2230463.5,1611470783.5335526,0
6.0,-18.965,,,2228588.0,1611470783.6072369,0
6.0,12.363999999999999,,,2225557.5,1611470783.680921,0
6.0,15.296000000000001,0.45116,32.55,2223694.5,1611470783.7546053,0
6.0,9.102,,,2223439.0,1611470783.8282895,0
6.0,11.0775,,,2223561.5,1611470783.9019737,0
6.0,7.752,,,2224098.0,1611470783.975658,0
6.0,-9.902000000000001,0.45116,32.55,2224915.0,1611470784.0493422,0
6.0,-22.4675,,,2226294.5,1611470784.1230264,0
6.0,-37.982,,,2227963.0,1611470784.1967106,0
6.0,-25.839999999999996,0.449879,32.55,2225348.0,1611470784.2703948,0
6.0,11.030000000000001,,,2221765.5,1611470784.344079,0
6.0,3.2325,,,2220418.0,1611470784.4177632,0
6.0,0.07200000000000006,,,2220239.0,1611470784.4914474,0
6.0,13.462,0.462688,32.55,2220051.0,1611470784.5651317,0
6.0,17.1425,,,2220579.5,1611470784.6388159,0
6.0,2.1480000000000006,,,2221690.5,1611470784.7125,0
6.0,-13.928,0.444755,32.55,2223552.5,1611470784.7861843,0
6.0,-31.546,,,2224984.5,1611470784.8598685,0
6.0,-18.425,,,2221823.0,1611470784.9335527,0
6.0,12.605999999999998,0.448598,32.55,2218700.0,1611470785.007237,0
6.0,10.014000000000001,,,2217572.0,1611470785.080921,0
6.0,7.0925,,,2217301.5,1611470785.1546052,0
6.0,15.994,,,2217215.5,1611470785.2282894,0
6.0,17.666,0.449879,32.55,2217552.5,1611470785.3019736,0
6.0,3.5340000000000003,,,2218659.0,1611470785.3756578,0
6.0,-10.675,,,2220002.0,1611470785.449342,0
6.0,-20.432,0.45116,32.55,2221483.0,1611470785.5230262,0
6.0,-29.964,,,2219702.5,1611470785.5967104,0
6.0,-2.355000000000001,,,2216110.0,1611470785.6703947,0
6.0,11.437999999999999,,,2215075.0,1611470785.7440789,0
6.0,-1.248,0.452441,32.55,2215550.0,1611470785.817763,0
6.0,2.38,,,2215449.5,1611470785.8914473,0
6.0,8.787500000000001,,,2215944.0,1611470785.9651315,0
6.0,0.21400000000000005,0.448598,32.55,2217202.0,1611470786.0388157,0
6.0,-11.475999999999999,,,2219075.5,1611470786.1125,0
6.0,-23.5725,,,2219710.0,1611470786.1861842,0
6.0,-36.230000000000004,0.447317,32.55,2215743.5,1611470786.2598684,0
6.0,-15.354,,,2213365.0,1611470786.3335526,0
6.0,12.558000000000002,,,2213181.0,1611470786.4072368,0
6.0,12.610000000000001,,,2213617.5,1611470786.480921,0
6.0,12.274,0.447317,32.55,2213857.5,1611470786.5546052,0
6.0,12.918000000000001,,,2214881.0,1611470786.6282895,0
6.0,10.0675,,,2216719.0,1611470786.7019737,0
6.0,8.42,0.452441,32.55,2219125.0,1611470786.775658,0
6.0,-4.684,,,2219162.0,1611470786.849342,0
6.0,-3.5420000000000003,,,2215524.0,1611470786.9230263,0
6.0,21.955,,,2212521.0,1611470786.9967105,0
6.0,31.556,0.461407,32.55,2211349.5,1611470787.0703948,0
6.0,25.99,,,2211620.0,1611470787.144079,0
6.0,19.0225,,,2211799.0,1611470787.2177632,0
6.0,17.934000000000005,0.466531,32.55,2212596.0,1611470787.2914474,0
6.0,10.588000000000001,,,2213908.5,1611470787.3651316,0
6.0,-5.082,,,2216235.5,1611470787.4388158,0
6.0,-26.5775,0.471655,32.55,2217320.5,1611470787.5125,0
6.0,-22.886000000000003,,,2213240.0,1611470787.5861843,0
6.0,0.23799999999999982,,,2210592.5,1611470787.6598685,0
6.0,-0.46,,,2210023.5,1611470787.7335527,0
6.0,-2.474,0.474217,32.55,2210587.0,1611470787.807237,0
6.0,4.208,,,2210578.5,1611470787.8809211,0
6.0,-2.746,,,2211760.0,1611470787.9546053,0
6.0,-13.2775,0.474217,32.55,2213362.5,1611470788.0282896,0
6.0,-25.82,,,2215776.0,1611470788.1019738,0
6.0,-31.631999999999998,,,2217991.0,1611470788.175658,0
6.0,-1.75,,,2216500.0,1611470788.2493422,0
6.0,11.943999999999999,0.470374,32.55,2213143.5,1611470788.3230264,0
6.0,5.999999999999999,,,2211542.0,1611470788.3967106,0
6.0,8.617999999999999,,,2211591.5,1611470788.4703948,0
6.0,7.49,0.471655,32.55,2212046.5,1611470788.544079,0
6.0,-7.25,,,2212759.0,1611470788.617763,0
6.0,-22.72,,,2214001.0,1611470788.6914473,0
6.0,-40.025,0.470374,32.55,2215715.5,1611470788.7651315,0
6.0,-35.216,,,2218136.0,1611470788.8388157,0
6.0,3.132,,,2218760.0,1611470788.9125,0
6.0,20.419999999999998,,,2215149.0,1611470788.9861841,0
6.0,19.2425,0.470374,32.55,2213625.5,1611470789.0598683,0
6.0,21.692,,,2213953.5,1611470789.1335526,0
6.0,21.880000000000003,,,2214492.0,1611470789.2072368,0
6.0,5.0275,0.469093,32.55,2214948.5,1611470789.280921,0
6.0,-11.024000000000001,,,2216230.5,1611470789.3546052,0
6.0,-27.318,,,2218413.0,1611470789.4282894,0
6.0,-17.514,0.467812,32.55,2220619.0,1611470789.5019736,0
6.0,12.8825,,,2218245.5,1611470789.5756578,0
6.0,21.342,,,2216276.0,1611470789.649342,0
6.0,26.682,,,2215683.0,1611470789.7230263,0
6.0,29.9375,0.461407,32.55,2216507.5,1611470789.7967105,0
6.0,16.622,,,2217321.0,1611470789.8703947,0
6.0,-0.756,,,2218527.5,1611470789.944079,0
6.0,-22.701999999999998,0.47934,32.55,2220295.0,1611470790.0177631,0
6.0,-34.39,,,2222191.0,1611470790.0914474,0
6.0,-8.072000000000001,,,2222990.5,1611470790.1651316,0
6.0,9.802000000000001,,,2219123.0,1611470790.2388158,0
6.0,3.0725000000000002,0.461407,32.55,2217095.0,1611470790.3125,0
6.0,-0.22400000000000003,,,2217051.5,1611470790.3861842,0
6.0,4.832,,,2217433.5,1611470790.4598684,0
6.0,4.996,0.460126,32.55,2217906.0,1611470790.5335526,0
6.0,12.92,,,2218805.5,1611470790.6072369,0
6.0,2.0939999999999994,,,2220753.0,1611470790.680921,0
6.0,-9.953999999999999,0.463969,32.55,2222573.0,1611470790.7546053,0
6.0,5.816,,,2219839.5,1611470790.8282895,0
6.0,18.205,,,2216576.5,1611470790.9019737,0
6.0,9.706,,,2215750.0,1611470790.975658,0
6.0,-5.2219999999999995,0.460126,32.55,2215819.0,1611470791.0493422,0
6.0,-3.9475000000000002,,,2216072.0,1611470791.1230264,0
6.0,-11.472,,,2216765.5,1611470791.1967106,0
6.0,-16.967999999999996,0.458845,32.53,2218407.5,1611470791.2703948,0
6.0,-17.506,,,2220589.0,1611470791.344079,0
6.0,-31.86,,,2221317.0,1611470791.4177632,0
6.0,-22.458000000000002,,,2218124.0,1611470791.4914474,0
6.0,13.89,0.457564,32.53,2215066.5,1611470791.5651317,0
6.0,22.4125,,,2214375.0,1611470791.6388159,0
6.0,19.342000000000002,,,2214647.5,1611470791.7125,0
6.0,25.926,0.455002,32.53,2215080.0,1611470791.7861843,0
6.0,31.492,,,2216038.0,1611470791.8598685,0
6.0,23.8975,,,2217623.0,1611470791.9335527,0
6.0,0.24799999999999986,0.458845,32.53,2220030.5,1611470792.007237,0
6.0,-18.564,,,2221020.0,1611470792.080921,0
6.0,-31.8175,,,2217116.5,1611470792.1546052,0
6.0,-23.412,,,2214803.5,1611470792.2282894,0
6.0,1.394,0.453721,32.55,2214545.0,1611470792.3019736,0
6.0,6.232000000000001,,,2214644.0,1611470792.3756578,0
6.0,5.2775,,,2215043.0,1611470792.449342,0
6.0,8.335999999999999,0.457564,32.55,2215978.5,1611470792.5230262,0
6.0,10.012,,,2217861.0,1611470792.5967104,0
6.0,8.812499999999998,,,2220135.5,1611470792.6703947,0
6.0,-3.178,,,2220149.0,1611470792.7440789,0
6.0,-14.056000000000001,0.456283,32.55,2217377.0,1611470792.817763,0
6.0,-28.353999999999996,,,2216158.0,1611470792.8914473,0
6.0,-23.642500000000002,,,2216487.0,1611470792.9651315,0
6.0,1.2100000000000002,0.457564,32.55,2217423.0,1611470793.0388157,0
6.0,8.476000000000003,,,2218208.0,1611470793.1125,0
6.0,6.935,,,2220017.5,1611470793.1861842,0
6.0,11.584,0.457564,32.53,2221565.0,1611470793.2598684,0
6.0,10.026000000000002,,,2223578.5,1611470793.3335526,0
6.0,0.9239999999999998,,,2224172.5,1611470793.4072368,0
6.0,-9.790000000000001,,,2220782.5,1611470793.480921,0
6.0,-14.382,0.452441,32.53,2219672.5,1611470793.5546052,0
6.0,-24.41,,,2220208.5,1611470793.6282895,0
6.0,-25.19,,,2221052.0,1611470793.7019737,0
6.0,-1.2939999999999994,0.452441,32.53,2221749.0,1611470793.775658,0
6.0,15.389999999999997,,,2223217.0,1611470793.849342,0
6.0,19.422000000000004,,,2225488.5,1611470793.9230263,0
6.0,17.625,,,2228169.5,1611470793.9967105,0
6.0,17.092000000000002,0.453721,32.53,2229350.0,1611470794.0703948,0
6.0,12.224,,,2226007.5,1611470794.144079,0
6.0,4.0675,,,2224677.0,1611470794.2177632,0
6.0,-2.02,0.456283,32.53,2224231.5,1611470794.2914474,0
6.0,-12.85,,,2224833.5,1611470794.3651316,0
6.0,2.9720000000000004,,,2225409.0,1611470794.4388158,0
6.0,20.997500000000002,0.455002,32.53,2226713.0,1611470794.5125,0
6.0,19.035999999999998,,,2228861.0,1611470794.5861843,0
6.0,13.15,,,2230676.0,1611470794.6598685,0
6.0,10.4725,,,2232820.5,1611470794.7335527,0
6.0,9.238,0.453721,32.53,2234196.5,1611470794.807237,0
6.0,-0.6880000000000001,,,2231074.0,1611470794.8809211,0
6.0,-12.268,,,2229630.5,1611470794.9546053,0
6.0,-23.8325,0.453721,32.53,2229345.5,1611470795.0282896,0
6.0,-32.94199999999999,,,2229929.0,1611470795.1019738,0
6.0,-10.238000000000001,,,2230556.5,1611470795.175658,0
6.0,9.837499999999999,,,2231767.5,1611470795.2493422,0
6.0,11.958,0.45116,32.53,2233806.0,1611470795.3230264,0
6.0,11.266000000000002,,,2236396.0,1611470795.3967106,0
6.0,14.360000000000003,,,2239027.5,1611470795.4703948,0
6.0,10.3975,0.449879,32.53,2240451.5,1611470795.544079,0
6.0,2.2459999999999996,,,2238248.0,1611470795.617763,0
6.0,-8.358,,,2236646.0,1611470795.6914473,0
6.0,-20.4775,0.447317,32.53,2236234.0,1611470795.7651315,0
6.0,-20.852,,,2236835.0,1611470795.8388157,0
6.0,9.472,,,2237457.0,1611470795.9125,0
6.0,29.139999999999997,,,2238768.5,1611470795.9861841,0
6.0,31.747500000000002,0.447317,32.53,2240254.0,1611470796.0598683,0
6.0,36.414,,,2242002.0,1611470796.1335526,0
6.0,29.57,,,2244512.5,1611470796.2072368,0
6.0,14.825,0.45116,32.5,2247141.0,1611470796.280921,0
6.0,-1.1740000000000002,,,2246112.0,1611470796.3546052,0
6.0,-14.382,,,2243840.0,1611470796.4282894,0
6.0,-36.977999999999994,0.448598,32.5,2243596.0,1611470796.5019736,0
6.0,-51.62,,,2243940.5,1611470796.5756578,0
6.0,-21.582,,,2244851.5,1611470796.649342,0
6.0,7.946000000000001,,,2245627.0,1611470796.7230263,0
6.0,36.792500000000004,0.448598,32.5,2247267.0,1611470796.7967105,0
6.0,56.162,,,2249465.5,1611470796.8703947,0
6.0,67.75399999999999,,,2251927.0,1611470796.944079,0
6.0,64.16,0.444755,32.5,2252657.0,1611470797.0177631,0
6.0,37.0325,,,2250081.0,1611470797.0914474,0
6.0,6.8260000000000005,,,2248365.5,1611470797.1651316,0
6.0,-38.510000000000005,,,2248517.5,1611470797.2388158,0
6.0,-71.49,0.443474,32.55,2249375.0,1611470797.3125,0
6.0,-88.36600000000001,,,2250100.5,1611470797.3861842,0
6.0,-132.904,,,2251296.0,1611470797.4598684,0
6.0,-129.85999999999999,0.443474,32.55,2252781.5,1611470797.5335526,0
6.0,-54.705000000000005,,,2255005.5,1611470797.6072369,0
6.0,0.8979999999999997,,,2257405.5,1611470797.680921,0
6.0,7.348000000000001,0.446036,32.55,2256593.5,1611470797.7546053,0
6.0,2.928,,,2252905.5,1611470797.8282895,0
6.0,0.44,,,2251608.5,1611470797.9019737,0
6.0,9.074,,,2251100.0,1611470797.975658,0
6.0,34.902,0.447317,32.55,2251451.5,1611470798.0493422,0
6.0,41.150000000000006,,,2251705.5,1611470798.1230264,0
6.0,31.548000000000002,,,2252895.0,1611470798.1967106,0
6.0,19.738,0.448598,32.5,2254524.0,1611470798.2703948,0
6.0,19.256,,,2256645.5,1611470798.344079,0
6.0,4.945,,,2258218.0,1611470798.4177632,0
6.0,-9.968,,,2256486.5,1611470798.4914474,0
6.0,-22.968,0.448598,32.5,2252518.0,1611470798.5651317,0
6.0,-24.257499999999997,,,2250967.0,1611470798.6388159,0
6.0,4.188,,,2250674.0,1611470798.7125,0
6.0,15.738,0.443474,32.5,2250834.5,1611470798.7861843,0
6.0,12.59,,,2251162.0,1611470798.8598685,0
6.0,13.0925,,,2252007.0,1611470798.9335527,0
6.0,13.569999999999999,0.446036,32.5,2253483.0,1611470799.007237,0
6.0,1.1179999999999999,,,2255367.0,1611470799.080921,0
6.0,-10.0175,,,2256371.0,1611470799.1546052,0
6.0,-27.732,,,2252404.5,1611470799.2282894,0
6.0,-27.03,0.447317,32.5,2250244.0,1611470799.3019736,0
6.0,6.494,,,2249176.5,1611470799.3756578,0
6.0,15.297500000000001,,,2249009.5,1611470799.449342,0
6.0,14.622,0.448598,32.5,2248934.0,1611470799.5230262,0
6.0,14.407999999999998,,,2249035.0,1611470799.5967104,0
6.0,14.9125,,,2250228.0,1611470799.6703947,0
6.0,6.1,,,2252567.0,1611470799.7440789,0
6.0,-4.798,0.452441,32.5,2254478.0,1611470799.817763,0
6.0,-23.559999999999995,,,2255442.5,1611470799.8914473,0
6.0,-25.1825,,,2252098.5,1611470799.9651315,0
6.0,4.302,0.45116,32.5,2249009.0,1611470800.0388157,0
6.0,16.488,,,2248101.5,1611470800.1125,0
6.0,14.657499999999999,,,2248022.5,1611470800.1861842,0
6.0,13.628,0.45116,32.5,2247860.0,1611470800.2598684,0
6.0,13.234,,,2248214.0,1611470800.3335526,0
6.0,2.9400000000000004,,,2249404.5,1611470800.4072368,0
6.0,-9.3825,,,2251187.5,1611470800.480921,0
6.0,-23.366000000000003,0.447317,32.5,2251893.0,1611470800.5546052,0
6.0,-36.106,,,2248444.5,1611470800.6282895,0
6.0,-13.9,,,2246081.0,1611470800.7019737,0
6.0,7.676,0.448598,32.5,2245487.5,1611470800.775658,0
6.0,12.766,,,2245682.0,1611470800.849342,0
6.0,12.739999999999998,,,2245495.0,1611470800.9230263,0
6.0,16.0325,,,2246330.5,1611470800.9967105,0
6.0,11.078,0.462688,32.5,2247621.0,1611470801.0703948,0
6.0,-0.45000000000000007,,,2249470.5,1611470801.144079,0
6.0,-11.9525,,,2250302.0,1611470801.2177632,0
6.0,-24.45,0.446036,32.53,2247540.5,1611470801.2914474,0
6.0,-8.55,,,2243535.5,1611470801.3651316,0
6.0,20.684000000000005,,,2241694.0,1611470801.4388158,0
6.0,25.585,0.45116,32.53,2241354.0,1611470801.5125,0
6.0,19.986,,,2241022.0,1611470801.5861843,0
6.0,17.46,,,2241103.0,1611470801.6598685,0
6.0,15.704999999999998,,,2241855.0,1611470801.7335527,0
6.0,6.733999999999999,0.448598,32.53,2243374.5,1611470801.807237,0
6.0,-9.040000000000001,,,2244428.5,1611470801.8809211,0
6.0,-21.282,,,2240383.0,1611470801.9546053,0
6.0,-6.815,0.448598,32.53,2236364.5,1611470802.0282896,0
6.0,16.43,,,2234654.0,1611470802.1019738,0
6.0,22.677999999999997,,,2234062.0,1611470802.175658,0
6.0,19.14,,,2233466.5,1611470802.2493422,0
6.0,18.426,0.440912,32.5,2233194.0,1611470802.3230264,0
6.0,18.582,,,2234001.5,1611470802.3967106,0
6.0,3.3920000000000003,,,2235330.5,1611470802.4703948,0
6.0,-10.475,0.440912,32.5,2235740.5,1611470802.544079,0
6.0,-19.222,,,2232097.0,1611470802.617763,0
6.0,-32.348,,,2228600.5,1611470802.6914473,0
6.0,-18.6525,0.444755,32.5,2225761.0,1611470802.7651315,0
6.0,4.566000000000001,,,2224696.5,1611470802.8388157,0
6.0,17.54,,,2223815.5,1611470802.9125,0
6.0,16.05,,,2223859.0,1611470802.9861841,0
6.0,15.27,0.444755,32.5,2224430.5,1611470803.0598683,0
6.0,15.968,,,2225257.0,1611470803.1335526,0
6.0,6.527999999999999,,,2226571.0,1611470803.2072368,0
6.0,-6.9975000000000005,0.443474,32.53,2224371.0,1611470803.280921,0
6.0,-16.35,,,2219278.0,1611470803.3546052,0
6.0,-31.25,,,2216160.0,1611470803.4282894,0
6.0,-28.006,0.444755,32.53,2214854.0,1611470803.5019736,0
6.0,0.9749999999999999,,,2214207.0,1611470803.5756578,0
6.0,13.362,,,2213299.5,1611470803.649342,0
6.0,20.494,,,2213612.5,1611470803.7230263,0
6.0,22.7225,0.443474,32.53,2214529.0,1611470803.7967105,0
6.0,20.69,,,2215866.5,1611470803.8703947,0
6.0,17.596,,,2214681.5,1611470803.944079,0
6.0,8.504,0.440912,32.53,2210692.0,1611470804.0177631,0
6.0,-2.185,,,2208181.5,1611470804.0914474,0
6.0,-9.538,,,2206126.0,1611470804.1651316,0
6.0,-17.552,,,2205478.5,1611470804.2388158,0
6.0,-33.885000000000005,0.444755,32.5,2204758.0,1611470804.3125,0
6.0,-37.67,,,2204967.5,1611470804.3861842,0
6.0,-7.232000000000001,,,2205655.0,1611470804.4598684,0
6.0,5.6899999999999995,0.443474,32.5,2206684.5,1611470804.5335526,0
6.0,10.3325,,,2207330.5,1611470804.6072369,0
6.0,12.285999999999998,,,2202595.5,1611470804.680921,0
6.0,14.136,0.442193,32.5,2198780.0,1611470804.7546053,0
6.0,12.447999999999999,,,2197226.0,1611470804.8282895,0
6.0,0.19000000000000017,,,2196757.5,1611470804.9019737,0
6.0,-11.684000000000001,,,2196312.0,1611470804.975658,0
6.0,-19.951999999999998,0.446036,32.5,2196316.5,1611470805.0493422,0
6.0,-31.3275,,,2197359.5,1611470805.1230264,0
6.0,-31.080000000000002,,,2199201.0,1611470805.1967106,0
6.0,-2.328,0.443474,32.49,2200975.5,1611470805.2703948,0
6.0,10.606,,,2199148.0,1611470805.344079,0
6.0,13.209999999999999,,,2195028.0,1611470805.4177632,0
6.0,14.868,,,2192113.0,1611470805.4914474,0
6.0,21.448,0.43835,32.49,2189852.5,1611470805.5651317,0
6.0,20.345,,,2189262.0,1611470805.6388159,0
6.0,9.468,,,2188757.5,1611470805.7125,0
6.0,-5.072,0.43835,32.49,2189351.5,1611470805.7861843,0
6.0,-20.622,,,2190368.0,1611470805.8598685,0
6.0,-9.620000000000001,,,2191668.0,1611470805.9335527,0
6.0,13.931999999999999,0.435788,32.49,2193681.5,1611470806.007237,0
6.0,20.878,,,2195189.0,1611470806.080921,0
6.0,17.417499999999997,,,2190930.5,1611470806.1546052,0
6.0,13.412,,,2186833.5,1611470806.2282894,0
6.0,15.419999999999998,0.440912,32.5,2184701.0,1611470806.3019736,0
6.0,7.573999999999998,,,2184336.0,1611470806.3756578,0
6.0,-10.877500000000001,,,2183929.5,1611470806.449342,0
6.0,-23.814,0.43835,32.5,2183848.5,1611470806.5230262,0
6.0,-37.26199999999999,,,2185046.0,1611470806.5967104,0
6.0,-33.54,,,2186907.0,1611470806.6703947,0
6.0,-15.572000000000003,,,2189072.0,1611470806.7440789,0
6.0,-5.859999999999999,0.444755,32.5,2190986.0,1611470806.817763,0
6.0,16.195999999999998,,,2193241.0,1611470806.8914473,0
6.0,9.565,,,2195883.0,1611470806.9651315,0
6.0,9.906,0.439631,32.5,2193023.5,1611470807.0388157,0
6.0,15.357999999999999,,,2189055.0,1611470807.1125,0
6.0,1.8500000000000003,,,2187320.5,1611470807.1861842,0
6.0,-2.932,0.43835,32.5,2186980.0,1611470807.2598684,0
6.0,-20.926,,,2186798.0,1611470807.3335526,0
6.0,-23.722,,,2187115.5,1611470807.4072368,0
6.0,2.765,,,2188448.0,1611470807.480921,0
6.0,17.958,0.435788,32.5,2190436.5,1611470807.5546052,0
6.0,16.092,,,2192576.5,1611470807.6282895,0
6.0,15.934999999999999,,,2195214.5,1611470807.7019737,0
6.0,18.810000000000002,0.439631,32.5,2196853.0,1611470807.775658,0
6.0,9.882,,,2194373.5,1611470807.849342,0
6.0,-2.228,,,2190724.5,1611470807.9230263,0
6.0,-11.844999999999999,,,2189325.0,1611470807.9967105,0
6.0,-27.322000000000003,0.440912,32.5,2189351.5,1611470808.0703948,0
6.0,-21.998,,,2189403.5,1611470808.144079,0
6.0,5.540000000000001,,,2189724.0,1611470808.2177632,0
6.0,12.272,0.442193,32.49,2190782.0,1611470808.2914474,0
6.0,9.948,,,2192517.5,1611470808.3651316,0
6.0,10.05,,,2194948.0,1611470808.4388158,0
6.0,9.072500000000002,0.440912,32.49,2196033.0,1611470808.5125,0
6.0,2.582,,,2192379.0,1611470808.5861843,0
6.0,-10.882,,,2190092.0,1611470808.6598685,0
6.0,-23.38,,,2189571.5,1611470808.7335527,0
6.0,-36.512,0.440912,32.49,2189888.0,1611470808.807237,0
6.0,-17.126,,,2190303.5,1611470808.8809211,0
6.0,7.359999999999999,,,2191350.0,1611470808.9546053,0
6.0,7.545,0.43835,32.49,2193225.0,1611470809.0282896,0
6.0,6.645999999999999,,,2195759.0,1611470809.1019738,0
6.0,7.831999999999999,,,2197787.0,1611470809.175658,0
6.0,5.8075,,,2199306.0,1611470809.2493422,0
6.0,0.9,0.437069,32.49,2195956.0,1611470809.3230264,0
6.0,-10.896,,,2192272.0,1611470809.3967106,0
6.0,-18.978,,,2190724.5,1611470809.4703948,0
6.0,-2.0024999999999995,0.43835,32.49,2190773.0,1611470809.544079,0
6.0,18.444,,,2190538.0,1611470809.617763,0
6.0,21.854000000000003,,,2191132.5,1611470809.6914473,0
6.0,17.4775,0.43835,32.49,2192459.5,1611470809.7651315,0
6.0,15.966,,,2194521.5,1611470809.8388157,0
6.0,13.35,,,2197067.5,1611470809.9125,0
6.0,3.0160000000000005,,,2198327.0,1611470809.9861841,0
6.0,-16.0425,0.442193,32.49,2195464.0,1611470810.0598683,0
6.0,-21.764000000000003,,,2192234.0,1611470810.1335526,0
6.0,8.916,,,2190264.5,1611470810.2072368,0
6.0,19.2675,0.440912,32.5,2189557.5,1611470810.280921,0
6.0,12.851999999999999,,,2189655.5,1611470810.3546052,0
6.0,8.97,,,2190078.0,1611470810.4282894,0
6.0,8.546000000000001,0.439631,32.5,2191403.0,1611470810.5019736,0
6.0,-2.9299999999999997,,,2192813.0,1611470810.5756578,0
6.0,-15.745999999999999,,,2195413.0,1611470810.649342,0
6.0,-34.342,,,2196979.5,1611470810.7230263,0
6.0,-25.182499999999997,0.43835,32.5,2193482.0,1611470810.7967105,0
6.0,5.384,,,2190047.0,1611470810.8703947,0
6.0,14.798000000000002,,,2188854.5,1611470810.944079,0
6.0,13.398,0.435788,32.5,2189023.0,1611470811.0177631,0
6.0,12.905000000000001,,,2189044.5,1611470811.0914474,0
6.0,9.954,,,2189360.5,1611470811.1651316,0
6.0,-1.654,,,2190792.5,1611470811.2388158,0
6.0,-13.8275,0.433226,32.49,2192768.0,1611470811.3125,0
6.0,-30.344,,,2195179.0,1611470811.3861842,0
6.0,-21.244,,,2195066.0,1611470811.4598684,0
6.0,10.73,0.433226,32.49,2191423.0,1611470811.5335526,0
6.0,18.5025,,,2188627.5,1611470811.6072369,0
6.0,15.041999999999998,,,2187920.0,1611470811.680921,0
6.0,13.884,0.435788,32.49,2188175.0,1611470811.7546053,0
6.0,13.61,,,2188468.5,1611470811.8282895,0
6.0,5.5825000000000005,,,2189078.0,1611470811.9019737,0
6.0,-6.15,,,2190448.0,1611470811.975658,0
6.0,-21.130000000000003,0.452441,32.49,2192626.5,1611470812.0493422,0
6.0,-30.9025,,,2192690.5,1611470812.1230264,0
6.0,-5.839999999999999,,,2188664.5,1611470812.1967106,0
6.0,17.082,0.439631,32.49,2187091.0,1611470812.2703948,0
6.0,16.782,,,2187346.5,1611470812.344079,0
6.0,15.05,,,2187592.0,1611470812.4177632,0
6.0,14.018,,,2187453.0,1611470812.4914474,0
6.0,6.862,0.435788,32.49,2188612.5,1611470812.5651317,0
6.0,-4.345,,,2190649.5,1611470812.6388159,0
6.0,-15.313999999999998,,,2191938.0,1611470812.7125,0
6.0,-32.234,0.433226,32.49,2187822.0,1611470812.7861843,0
6.0,-25.772000000000002,,,2184931.0,1611470812.8598685,0
6.0,2.3850000000000002,,,2183479.5,1611470812.9335527,0
6.0,10.808,0.431945,32.49,2183173.5,1611470813.007237,0
6.0,8.638000000000002,,,2182915.5,1611470813.080921,0
6.0,6.8275,,,2183480.5,1611470813.1546052,0
6.0,8.856,,,2184822.5,1611470813.2282894,0
6.0,4.298,0.430664,32.49,2186580.0,1611470813.3019736,0
6.0,-5.866,,,2186909.0,1611470813.3756578,0
6.0,-18.9975,,,2182264.0,1611470813.449342,0
6.0,-25.846000000000004,0.431945,32.49,2178358.0,1611470813.5230262,0
6.0,1.9700000000000002,,,2176302.5,1611470813.5967104,0
6.0,21.5725,,,2175740.5,1611470813.6703947,0
6.0,20.096,,,2175511.0,1611470813.7440789,0
6.0,14.314000000000002,0.437069,32.49,2175713.0,1611470813.817763,0
6.0,15.290000000000001,,,2176733.0,1611470813.8914473,0
6.0,11.46,,,2178677.0,1611470813.9651315,0
6.0,1.8760000000000001,0.435788,32.49,2178903.0,1611470814.0388157,0
6.0,-11.440000000000001,,,2173767.0,1611470814.1125,0
6.0,-22.6975,,,2170241.5,1611470814.1861842,0
6.0,-3.0839999999999996,0.434507,32.47,2169081.0,1611470814.2598684,0
6.0,18.276,,,2168453.0,1611470814.3335526,0
6.0,15.920000000000002,,,2168468.5,1611470814.4072368,0
6.0,10.995000000000001,,,2168816.5,1611470814.480921,0
6.0,10.854000000000001,0.431945,32.47,2170617.5,1611470814.5546052,0
6.0,5.6659999999999995,,,2172791.5,1611470814.6282895,0
6.0,-6.505000000000001,,,2174805.0,1611470814.7019737,0
6.0,-15.448000000000002,0.430664,32.47,2173682.5,1611470814.775658,0
6.0,-29.186,,,2168936.0,1611470814.849342,0
6.0,-23.144,,,2166563.0,1611470814.9230263,0
6.0,3.4074999999999998,,,2165999.0,1611470814.9967105,0
6.0,10.602,0.433226,32.47,2165946.5,1611470815.0703948,0
6.0,10.736,,,2166264.0,1611470815.144079,0
6.0,11.6825,,,2167160.5,1611470815.2177632,0
6.0,12.819999999999999,0.431945,32.47,2169087.0,1611470815.2914474,0
6.0,7.284000000000001,,,2171685.0,1611470815.3651316,0
6.0,-6.589999999999999,,,2173542.0,1611470815.4388158,0
6.0,-17.71,0.431945,32.47,2169716.0,1611470815.5125,0
6.0,-30.910000000000004,,,2167373.0,1611470815.5861843,0
6.0,-21.002,,,2166311.5,1611470815.6598685,0
6.0,5.96,,,2166378.0,1611470815.7335527,0
6.0,12.516,0.437069,32.47,2166402.5,1611470815.807237,0
6.0,10.161999999999999,,,2167628.5,1611470815.8809211,0
6.0,10.71,,,2169443.0,1611470815.9546053,0
6.0,9.195,0.433226,32.47,2172119.5,1611470816.0282896,0
6.0,4.296000000000001,,,2174119.0,1611470816.1019738,0
6.0,-8.86,,,2173757.5,1611470816.175658,0
6.0,-20.3125,,,2170268.5,1611470816.2493422,0
6.0,-29.742,0.434507,32.47,2169255.5,1611470816.3230264,0
6.0,-11.094000000000001,,,2169712.0,1611470816.3967106,0
6.0,11.078,,,2170517.5,1611470816.4703948,0
6.0,11.73,0.429383,32.47,2171325.0,1611470816.544079,0
6.0,10.852,,,2172540.0,1611470816.617763,0
6.0,10.768,,,2175190.0,1611470816.6914473,0
6.0,5.1049999999999995,0.426822,32.47,2178223.0,1611470816.7651315,0
6.0,-5.678,,,2177814.5,1611470816.8388157,0
6.0,-16.952,,,2174661.5,1611470816.9125,0
6.0,-31.665999999999997,,,2173823.0,1611470816.9861841,0
6.0,-26.060000000000002,0.430664,32.47,2173966.5,1611470817.0598683,0
6.0,-0.524,,,2174894.0,1611470817.1335526,0
6.0,7.458,,,2176126.5,1611470817.2072368,0
6.0,5.56,0.434507,32.47,2177965.5,1611470817.280921,0
6.0,6.442,,,2180617.0,1611470817.3546052,0
6.0,6.352000000000001,,,2183201.0,1611470817.4282894,0
6.0,0.23599999999999993,0.440912,32.47,2185283.5,1611470817.5019736,0
6.0,-8.9525,,,2183542.5,1611470817.5756578,0
6.0,-20.138,,,2180504.0,1611470817.649342,0
6.0,-2.464,,,2179613.5,1611470817.7230263,0
6.0,19.295,0.444755,32.47,2179915.5,1611470817.7967105,0
6.0,17.402,,,2180806.0,1611470817.8703947,0
6.0,10.297999999999998,,,2182071.0,1611470817.944079,0
6.0,7.87,0.443474,32.47,2183623.5,1611470818.0177631,0
6.0,7.2924999999999995,,,2186316.0,1611470818.0914474,0
6.0,0.7219999999999999,,,2189281.5,1611470818.1651316,0
6.0,-15.368,,,2190982.0,1611470818.2388158,0
6.0,-19.9525,0.444755,32.47,2187325.5,1611470818.3125,0
6.0,4.334,,,2185789.0,1611470818.3861842,0
6.0,18.482,,,2185362.0,1611470818.4598684,0
6.0,13.77,0.446036,32.47,2185881.5,1611470818.5335526,0
6.0,8.58,,,2186787.5,1611470818.6072369,0
6.0,7.517999999999999,,,2188148.5,1611470818.680921,0
6.0,-1.9259999999999997,0.45116,32.47,2190590.5,1611470818.7546053,0
6.0,-17.96,,,2192698.0,1611470818.8282895,0
6.0,-31.130000000000003,,,2194814.0,1611470818.9019737,0
6.0,-10.644,,,2196046.0,1611470818.975658,0
6.0,13.913999999999998,0.448598,32.47,2192592.0,1611470819.0493422,0
6.0,13.2725,,,2190950.0,1611470819.1230264,0
6.0,10.33,,,2191015.5,1611470819.1967106,0
6.0,8.092,0.447317,32.47,2191890.5,1611470819.2703948,0
6.0,2.2560000000000002,,,2192488.0,1611470819.344079,0
6.0,-8.850000000000001,,,2193746.5,1611470819.4177632,0
6.0,-25.991999999999997,,,2196076.0,1611470819.4914474,0
6.0,-15.318000000000001,0.448598,32.47,2199062.5,1611470819.5651317,0
6.0,15.66,,,2200671.0,1611470819.6388159,0
6.0,24.839999999999996,,,2197407.5,1611470819.7125,0
6.0,22.724,0.440912,32.47,2195936.0,1611470819.7861843,0
6.0,24.33,,,2195630.0,1611470819.8598685,0
6.0,12.522499999999999,,,2196490.0,1611470819.9335527,0
6.0,-8.559999999999999,0.439631,32.47,2197024.0,1611470820.007237,0
6.0,-40.966,,,2198422.5,1611470820.080921,0
6.0,-55.667500000000004,,,2200655.0,1611470820.1546052,0
6.0,-26.54,,,2202746.0,1611470820.2282894,0
6.0,5.772,0.43835,32.47,2203961.5,1611470820.3019736,0
6.0,12.056000000000001,,,2201345.5,1611470820.3756578,0
6.0,12.2025,,,2199367.0,1611470820.449342,0
6.0,10.26,0.435788,32.47,2199967.5,1611470820.5230262,0
6.0,1.4679999999999995,,,2200816.0,1611470820.5967104,0
6.0,-12.015,,,2201334.0,1611470820.6703947,0
6.0,-30.339999999999996,,,2202567.5,1611470820.7440789,0
6.0,-15.8,0.439631,32.47,2204809.5,1611470820.817763,0
6.0,13.712,,,2207109.0,1611470820.8914473,0
6.0,15.924999999999999,,,2205022.0,1611470820.9651315,0
6.0,16.162,0.442193,32.47,2202049.0,1611470821.0388157,0
6.0,20.126,,,2201376.0,1611470821.1125,0
6.0,21.705,,,2201883.0,1611470821.1861842,0
6.0,10.726,0.439631,32.47,2202171.0,1611470821.2598684,0
6.0,-15.813999999999998,,,2203119.0,1611470821.3335526,0
6.0,-17.400000000000002,,,2204968.5,1611470821.4072368,0
6.0,13.085,,,2207113.0,1611470821.480921,0
6.0,25.57,0.43835,32.47,2205846.0,1611470821.5546052,0
6.0,16.458,,,2202373.0,1611470821.6282895,0
6.0,11.907499999999999,,,2200535.5,1611470821.7019737,0
6.0,9.419999999999998,0.433226,32.47,2199762.0,1611470821.775658,0
6.0,-3.63,,,2199940.5,1611470821.849342,0
6.0,-16.622,,,2200512.5,1611470821.9230263,0
6.0,-32.885,,,2201879.0,1611470821.9967105,0
6.0,-15.601999999999999,0.431945,32.47,2203378.0,1611470822.0703948,0
6.0,14.151999999999997,,,2204365.5,1611470822.144079,0
6.0,11.845,,,2200597.5,1611470822.2177632,0
6.0,9.308,0.433226,32.45,2197304.5,1611470822.2914474,0
6.0,9.84,,,2196430.0,1611470822.3651316,0
6.0,2.83,,,2196414.0,1611470822.4388158,0
6.0,-7.9350000000000005,0.430664,32.45,2196645.0,1611470822.5125,0
6.0,-19.759999999999998,,,2197219.0,1611470822.5861843,0
6.0,-28.43,,,2198552.5,1611470822.6598685,0
6.0,-4.029999999999999,,,2200672.5,1611470822.7335527,0
6.0,16.14,0.434507,32.45,2198304.0,1611470822.807237,0
6.0,15.201999999999998,,,2194391.0,1611470822.8809211,0
6.0,16.892,,,2192925.5,1611470822.9546053,0
6.0,16.7775,0.452441,32.45,2192738.0,1611470823.0282896,0
6.0,11.010000000000002,,,2193087.0,1611470823.1019738,0
6.0,-3.942,,,2193398.0,1611470823.175658,0
6.0,-19.1175,,,2194578.5,1611470823.2493422,0
6.0,-31.894,0.437069,32.47,2196893.5,1611470823.3230264,0
6.0,-10.514,,,2196483.5,1611470823.3967106,0
6.0,12.120000000000001,,,2193101.0,1611470823.4703948,0
6.0,10.7125,0.439631,32.47,2191304.0,1611470823.544079,0
6.0,12.822,,,2190519.5,1611470823.617763,0
6.0,17.372,,,2190971.0,1611470823.6914473,0
6.0,13.7025,0.437069,32.47,2191158.5,1611470823.7651315,0
6.0,2.1359999999999997,,,2192409.0,1611470823.8388157,0
6.0,-10.168000000000001,,,2193996.0,1611470823.9125,0
6.0,-24.538,,,2195452.0,1611470823.9861841,0
6.0,-30.705,0.437069,32.47,2193407.5,1611470824.0598683,0
6.0,-6.58,,,2190208.5,1611470824.1335526,0
6.0,6.936,,,2189552.5,1611470824.2072368,0
6.0,7.209999999999999,0.434507,32.47,2190316.5,1611470824.280921,0
6.0,12.59,,,2190765.0,1611470824.3546052,0
6.0,12.951999999999998,,,2191455.0,1611470824.4282894,0
6.0,4.4399999999999995,0.437069,32.47,2193111.5,1611470824.5019736,0
6.0,-7.07,,,2195646.0,1611470824.5756578,0
6.0,-15.557999999999998,,,2195413.5,1611470824.649342,0
6.0,-25.762,,,2191467.0,1611470824.7230263,0
6.0,-36.69,0.439631,32.47,2189776.0,1611470824.7967105,0
6.0,-19.786,,,2189604.0,1611470824.8703947,0
6.0,5.672,,,2190201.0,1611470824.944079,0
6.0,10.193999999999999,0.43835,32.47,2190872.0,1611470825.0177631,0
6.0,13.525,,,2192323.5,1611470825.0914474,0
6.0,17.094,,,2194713.5,1611470825.1651316,0
6.0,14.307999999999998,,,2196721.5,1611470825.2388158,0
6.0,4.465,0.435788,32.47,2195012.0,1611470825.3125,0
6.0,-2.332,,,2192287.0,1611470825.3861842,0
6.0,-14.795999999999998,,,2190417.0,1611470825.4598684,0
6.0,-4.482,0.433226,32.47,2190456.5,1611470825.5335526,0
6.0,17.7975,,,2190883.5,1611470825.6072369,0
6.0,19.298,,,2191923.0,1611470825.680921,0
6.0,15.901999999999997,0.431945,32.47,2193883.5,1611470825.7546053,0
6.0,16.664,,,2195854.0,1611470825.8282895,0
6.0,16.2525,,,2197939.5,1611470825.9019737,0
6.0,7.022000000000001,,,2198004.5,1611470825.975658,0
6.0,-2.68,0.430664,32.47,2194434.0,1611470826.0493422,0
6.0,-17.384999999999998,,,2192854.0,1611470826.1230264,0
6.0,-20.392000000000003,,,2192686.5,1611470826.1967106,0
6.0,4.024,0.431945,32.47,2193123.0,1611470826.2703948,0
6.0,10.064,,,2193701.0,1611470826.344079,0
6.0,7.705,,,2195290.0,1611470826.4177632,0
6.0,5.1259999999999994,,,2197553.0,1611470826.4914474,0
6.0,6.686,0.435788,32.47,2200247.5,1611470826.5651317,0
6.0,-1.0850000000000002,,,2203008.5,1611470826.6388159,0
6.0,-12.642,,,2201882.0,1611470826.7125,0
6.0,-26.742,0.434507,32.47,2199094.5,1611470826.7861843,0
6.0,-35.059999999999995,,,2197469.0,1611470826.8598685,0
6.0,-8.9725,,,2197460.5,1611470826.9335527,0
6.0,7.790000000000001,0.434507,32.47,2197900.0,1611470827.007237,0
6.0,4.718,,,2198780.0,1611470827.080921,0
6.0,5.9725,,,2199913.0,1611470827.1546052,0
6.0,8.812000000000001,,,2201695.5,1611470827.2282894,0
6.0,0.16800000000000015,0.430664,32.47,2204181.0,1611470827.3019736,0
6.0,-8.056000000000001,,,2207002.5,1611470827.3756578,0
6.0,-15.135,,,2207033.5,1611470827.449342,0
6.0,-27.488,0.426822,32.47,2203583.5,1611470827.5230262,0
6.0,-10.982,,,2202490.0,1611470827.5967104,0
6.0,9.395,,,2202329.5,1611470827.6703947,0
6.0,12.49,,,2203071.0,1611470827.7440789,0
6.0,16.53,0.428103,32.47,2203498.0,1611470827.817763,0
6.0,14.128,,,2204885.5,1611470827.8914473,0
6.0,10.7875,,,2206973.5,1611470827.9651315,0
6.0,4.298,0.425541,32.47,2209439.0,1611470828.0388157,0
6.0,-13.569999999999999,,,2210722.0,1611470828.1125,0
6.0,-33.825,,,2208870.0,1611470828.1861842,0
6.0,-35.00000000000001,0.431945,32.45,2206483.5,1611470828.2598684,0
6.0,-5.993999999999999,,,2206448.5,1611470828.3335526,0
6.0,7.414,,,2207460.0,1611470828.4072368,0
6.0,5.0424999999999995,,,2208317.5,1611470828.480921,0
6.0,2.832,0.429383,32.45,2209310.0,1611470828.5546052,0
6.0,7.274000000000001,,,2210800.0,1611470828.6282895,0
6.0,3.2649999999999997,,,2213285.0,1611470828.7019737,0
6.0,-4.648000000000001,0.428103,32.45,2215609.0,1611470828.775658,0
6.0,-20.784000000000002,,,2212916.0,1611470828.849342,0
6.0,-16.669999999999998,,,2210810.5,1611470828.9230263,0
6.0,12.4925,,,2210276.0,1611470828.9967105,0
6.0,24.482000000000003,0.426822,32.45,2210782.0,1611470829.0703948,0
6.0,22.024,,,2211821.0,1611470829.144079,0
6.0,16.7625,,,2212889.5,1611470829.2177632,0
6.0,13.824000000000002,0.422979,32.45,2214756.5,1611470829.2914474,0
6.0,8.546,,,2217483.0,1611470829.3651316,0
6.0,-1.846,,,2219630.0,1611470829.4388158,0
6.0,-17.08,0.422979,32.45,2219188.0,1611470829.5125,0
6.0,-5.797999999999999,,,2215517.0,1611470829.5861843,0
6.0,21.098000000000003,,,2213943.5,1611470829.6598685,0
6.0,20.515,,,2213864.5,1611470829.7335527,0
6.0,14.95,0.42426,32.45,2214344.5,1611470829.807237,0
6.0,15.040000000000001,,,2215102.0,1611470829.8809211,0
6.0,6.627999999999998,,,2216594.0,1611470829.9546053,0
6.0,-4.4,0.429383,32.45,2218040.5,1611470830.0282896,0
6.0,-17.728,,,2220479.5,1611470830.1019738,0
6.0,-30.074,,,2221283.0,1611470830.175658,0
6.0,-11.182500000000001,,,2217544.5,1611470830.2493422,0
6.0,5.708,0.428103,32.45,2215695.5,1611470830.3230264,0
6.0,5.274,,,2215301.0,1611470830.3967106,0
6.0,4.938000000000001,,,2215628.5,1611470830.4703948,0
6.0,8.5725,0.429383,32.45,2216402.0,1611470830.544079,0
6.0,-0.15599999999999986,,,2217235.5,1611470830.617763,0
6.0,-11.075999999999999,,,2219332.0,1611470830.6914473,0
6.0,-25.1925,0.428103,32.45,2221853.0,1611470830.7651315,0
6.0,-28.394,,,2223489.0,1611470830.8388157,0
6.0,5.144,,,2221635.0,1611470830.9125,0
6.0,17.212,,,2218114.5,1611470830.9861841,0
6.0,11.1225,0.425541,32.45,2217169.0,1611470831.0598683,0
6.0,12.081999999999999,,,2217560.5,1611470831.1335526,0
6.0,14.551999999999998,,,2218029.5,1611470831.2072368,0
6.0,5.9975000000000005,0.426822,32.45,2218926.0,1611470831.280921,0
6.0,-8.475999999999999,,,2220154.0,1611470831.3546052,0
6.0,-28.504,,,2221723.0,1611470831.4282894,0
6.0,-24.127999999999997,0.429383,32.45,2223947.0,1611470831.5019736,0
6.0,8.5625,,,2221484.0,1611470831.5756578,0
6.0,18.996000000000002,,,2218939.5,1611470831.649342,0
6.0,15.419999999999998,,,2218868.0,1611470831.7230263,0
6.0,12.05,0.435788,32.45,2219409.0,1611470831.7967105,0
6.0,10.904,,,2219534.5,1611470831.8703947,0
6.0,0.308,,,2220395.5,1611470831.944079,0
6.0,-15.344,0.440912,32.45,2222084.0,1611470832.0177631,0
6.0,-30.735,,,2224347.5,1611470832.0914474,0
6.0,-32.658,,,2223855.5,1611470832.1651316,0
6.0,-5.162000000000001,,,2220866.0,1611470832.2388158,0
6.0,6.0325,0.440912,32.45,2219189.5,1611470832.3125,0
6.0,4.736,,,2219036.5,1611470832.3861842,0
6.0,9.322,,,2219480.0,1611470832.4598684,0
6.0,8.338,0.440912,32.45,2220162.0,1611470832.5335526,0
6.0,-1.29,,,2221427.5,1611470832.6072369,0
6.0,-10.192,,,2223728.0,1611470832.680921,0
6.0,-25.174,0.43835,32.45,2225604.0,1611470832.7546053,0
6.0,-20.438000000000002,,,2224180.5,1611470832.8282895,0
6.0,10.71,,,2219924.0,1611470832.9019737,0
6.0,18.169999999999998,,,2218132.0,1611470832.975658,0
6.0,15.313999999999998,0.435788,32.45,2217533.5,1611470833.0493422,0
6.0,15.1725,,,2217616.0,1611470833.1230264,0
6.0,15.484,,,2217697.0,1611470833.1967106,0
6.0,10.726,0.433226,32.43,2218689.0,1611470833.2703948,0
6.0,-3.7479999999999998,,,2220667.0,1611470833.344079,0
6.0,-19.355,,,2222182.0,1611470833.4177632,0
6.0,-4.086,,,2218740.0,1611470833.4914474,0
6.0,20.946,0.434507,32.43,2214979.5,1611470833.5651317,0
6.0,22.434999999999995,,,2213747.0,1611470833.6388159,0
6.0,16.884,,,2213694.0,1611470833.7125,0
6.0,13.368,0.433226,32.43,2213584.5,1611470833.7861843,0
6.0,7.645999999999999,,,2213993.5,1611470833.8598685,0
6.0,0.09500000000000008,,,2215397.0,1611470833.9335527,0
6.0,-18.44,0.434507,32.43,2217599.0,1611470834.007237,0
6.0,-25.594,,,2217942.5,1611470834.080921,0
6.0,1.4225,,,2214357.0,1611470834.1546052,0
6.0,17.028,,,2211926.0,1611470834.2282894,0
6.0,15.86,0.433226,32.47,2210278.5,1611470834.3019736,0
6.0,11.192,,,2210205.5,1611470834.3756578,0
6.0,10.225,,,2210220.5,1611470834.449342,0
6.0,1.5479999999999998,0.428103,32.47,2210954.5,1611470834.5230262,0
6.0,-10.494,,,2212060.0,1611470834.5967104,0
6.0,-25.8925,,,2213623.5,1611470834.6703947,0
6.0,-31.854000000000003,,,2215382.0,1611470834.7440789,0
6.0,2.588,0.426822,32.47,2211963.5,1611470834.817763,0
6.0,17.459999999999997,,,2208448.0,1611470834.8914473,0
6.0,15.620000000000001,,,2207224.5,1611470834.9651315,0
6.0,16.157999999999998,0.428103,32.47,2207416.0,1611470835.0388157,0
6.0,13.744,,,2207261.0,1611470835.1125,0
6.0,1.8850000000000002,,,2207726.5,1611470835.1861842,0
6.0,-9.518,0.428103,32.45,2208845.0,1611470835.2598684,0
6.0,-26.96,,,2210714.0,1611470835.3335526,0
6.0,-28.139999999999997,,,2211922.0,1611470835.4072368,0
6.0,4.6225000000000005,,,2208883.0,1611470835.480921,0
6.0,14.632,0.429383,32.45,2206113.5,1611470835.5546052,0
6.0,14.453999999999999,,,2204711.5,1611470835.6282895,0
6.0,14.0975,,,2204787.0,1611470835.7019737,0
6.0,14.110000000000003,0.428103,32.45,2204704.0,1611470835.775658,0
6.0,7.605999999999999,,,2205250.5,1611470835.849342,0
6.0,-6.432,,,2206853.5,1611470835.9230263,0
6.0,-17.8425,,,2208484.0,1611470835.9967105,0
6.0,-33.582,0.429383,32.45,2208493.0,1611470836.0703948,0
6.0,-21.462,,,2204542.5,1611470836.144079,0
6.0,1.21,,,2202323.0,1611470836.2177632,0
6.0,8.43,0.425541,32.43,2202189.0,1611470836.2914474,0
6.0,3.8120000000000003,,,2202445.5,1611470836.3651316,0
6.0,7.225999999999999,,,2202424.0,1611470836.4388158,0
6.0,6.795,0.425541,32.43,2203355.0,1611470836.5125,0
6.0,-9.203999999999999,,,2205288.0,1611470836.5861843,0
6.0,-21.476,,,2207075.0,1611470836.6598685,0
6.0,-30.509999999999998,,,2204030.0,1611470836.7335527,0
6.0,-36.28,0.425541,32.43,2199992.5,1611470836.807237,0
6.0,-9.52,,,2198788.0,1611470836.8809211,0
6.0,13.620000000000001,,,2198304.0,1611470836.9546053,0
6.0,12.0825,0.430664,32.43,2198428.0,1611470837.0282896,0
6.0,9.687999999999999,,,2198772.5,1611470837.1019738,0
6.0,11.84,,,2200200.0,1611470837.175658,0
6.0,11.5925,,,2202403.0,1611470837.2493422,0
6.0,5.398000000000001,0.429383,32.45,2203360.5,1611470837.3230264,0
6.0,-5.144,,,2200171.0,1611470837.3967106,0
6.0,-11.794,,,2197157.0,1611470837.4703948,0
6.0,11.0275,0.426822,32.45,2195206.0,1611470837.544079,0
6.0,25.932,,,2195203.5,1611470837.617763,0
6.0,25.176000000000002,,,2195242.0,1611470837.6914473,0
6.0,20.072499999999998,0.429383,32.45,2196059.0,1611470837.7651315,0
6.0,17.764,,,2197202.0,1611470837.8388157,0
6.0,12.719999999999999,,,2199070.0,1611470837.9125,0
6.0,-2.806,,,2201088.5,1611470837.9861841,0
6.0,-21.744999999999997,0.42426,32.45,2198499.5,1611470838.0598683,0
6.0,-26.676,,,2194860.5,1611470838.1335526,0
6.0,5.0,,,2193375.0,1611470838.2072368,0
6.0,18.835,0.422979,32.43,2193277.0,1611470838.280921,0
6.0,16.871999999999996,,,2193789.5,1611470838.3546052,0
6.0,14.99,,,2194249.5,1611470838.4282894,0
6.0,16.066,0.420417,32.43,2195857.0,1611470838.5019736,0
6.0,10.175,,,2197991.5,1611470838.5756578,0
6.0,-3.286,,,2200872.5,1611470838.649342,0
6.0,-20.226,,,2200564.5,1611470838.7230263,0
6.0,-32.0125,0.426822,32.43,2197137.0,1611470838.7967105,0
6.0,-14.468,,,2195431.0,1611470838.8703947,0
6.0,11.219999999999999,,,2194753.0,1611470838.944079,0
6.0,14.632,0.428103,32.43,2195075.0,1611470839.0177631,0
6.0,13.505,,,2195561.0,1611470839.0914474,0
6.0,16.122,,,2197159.0,1611470839.1651316,0
6.0,10.868,,,2199315.0,1611470839.2388158,0
6.0,-1.4725000000000001,0.428103,32.45,2201999.5,1611470839.3125,0
6.0,-10.632,,,2204042.0,1611470839.3861842,0
6.0,-26.392000000000003,,,2202906.0,1611470839.4598684,0
6.0,-26.506,0.425541,32.45,2199437.0,1611470839.5335526,0
6.0,2.6799999999999997,,,2198404.0,1611470839.6072369,0
6.0,13.378,,,2198991.0,1611470839.680921,0
6.0,13.62,0.422979,32.45,2199488.0,1611470839.7546053,0
6.0,15.950000000000003,,,2200720.5,1611470839.8282895,0
6.0,14.982500000000002,,,2202710.0,1611470839.9019737,0
6.0,7.595999999999999,,,2205205.0,1611470839.975658,0
6.0,-7.3,0.420417,32.45,2206888.0,1611470840.0493422,0
6.0,-16.9925,,,2205064.0,1611470840.1230264,0
6.0,-29.694000000000006,,,2202268.0,1611470840.1967106,0
6.0,-12.852,0.422979,32.43,2202138.0,1611470840.2703948,0
6.0,12.939999999999998,,,2203220.5,1611470840.344079,0
6.0,13.63,,,2203706.0,1611470840.4177632,0
6.0,9.278,,,2205309.0,1611470840.4914474,0
6.0,11.312000000000001,0.422979,32.43,2207603.0,1611470840.5651317,0
6.0,9.77,,,2209437.0,1611470840.6388159,0
6.0,-2.786,,,2210799.5,1611470840.7125,0
6.0,-12.916,0.425541,32.43,2207755.5,1611470840.7861843,0
6.0,-28.23,,,2205341.5,1611470840.8598685,0
6.0,-22.115000000000002,,,2204933.5,1611470840.9335527,0
6.0,4.358,0.42426,32.43,2205867.5,1611470841.007237,0
6.0,10.542,,,2206320.0,1611470841.080921,0
6.0,7.7325,,,2207358.0,1611470841.1546052,0
6.0,9.074000000000002,,,2209074.0,1611470841.2282894,0
6.0,8.680000000000001,0.421698,32.45,2211437.0,1611470841.3019736,0
6.0,-0.4919999999999999,,,2213204.5,1611470841.3756578,0
6.0,-8.055,,,2209518.5,1611470841.449342,0
6.0,-23.646,0.420417,32.45,2207052.0,1611470841.5230262,0
6.0,-22.144,,,2206248.0,1611470841.5967104,0
6.0,8.9375,,,2206288.0,1611470841.6703947,0
6.0,18.232,,,2206651.0,1611470841.7440789,0
6.0,6.846000000000001,0.421698,32.45,2207623.5,1611470841.817763,0
6.0,6.465999999999999,,,2209731.0,1611470841.8914473,0
6.0,8.535,,,2211987.0,1611470841.9651315,0
6.0,-1.7280000000000002,0.419136,32.45,2214113.0,1611470842.0388157,0
6.0,-10.146,,,2214238.5,1611470842.1125,0
6.0,-25.792499999999997,,,2210186.0,1611470842.1861842,0
6.0,-18.934,0.422979,32.45,2208339.5,1611470842.2598684,0
6.0,11.750000000000002,,,2208066.0,1611470842.3335526,0
6.0,11.042,,,2208677.5,1611470842.4072368,0
6.0,6.15,,,2209496.5,1611470842.480921,0
6.0,7.4239999999999995,0.420417,32.45,2210684.0,1611470842.5546052,0
6.0,4.456,,,2212166.5,1611470842.6282895,0
6.0,-2.11,,,2214712.0,1611470842.7019737,0
6.0,-14.922,0.420417,32.45,2216899.5,1611470842.775658,0
6.0,-27.971999999999998,,,2213792.5,1611470842.849342,0
6.0,-9.492,,,2211565.5,1611470842.9230263,0
6.0,8.467500000000001,,,2210977.0,1611470842.9967105,0
6.0,5.608,0.421698,32.45,2211623.5,1611470843.0703948,0
6.0,-1.286,,,2212312.5,1611470843.144079,0
6.0,-2.275,,,2213518.0,1611470843.2177632,0
6.0,-9.294,0.416574,32.45,2215369.5,1611470843.2914474,0
6.0,-16.872,,,2217796.5,1611470843.3651316,0
6.0,-31.73,,,2219974.0,1611470843.4388158,0
6.0,-29.249999999999996,0.417855,32.45,2219495.0,1611470843.5125,0
6.0,-2.4659999999999997,,,2216190.5,1611470843.5861843,0
6.0,9.977999999999998,,,2215131.5,1611470843.6598685,0
6.0,7.9975,,,2215817.5,1611470843.7335527,0
6.0,7.1579999999999995,0.420417,32.45,2216675.5,1611470843.807237,0
6.0,8.142,,,2217786.5,1611470843.8809211,0
6.0,9.040000000000001,,,2219187.0,1611470843.9546053,0
6.0,-2.1849999999999996,0.421698,32.45,2221100.5,1611470844.0282896,0
6.0,-14.954000000000002,,,2223726.5,1611470844.1019738,0
6.0,8.672,,,2223220.5,1611470844.175658,0
6.0,25.9175,,,2220261.5,1611470844.2493422,0
6.0,20.895999999999997,0.421698,32.45,2219782.5,1611470844.3230264,0
6.0,16.071999999999996,,,2220544.0,1611470844.3967106,0
6.0,13.712,,,2221281.0,1611470844.4703948,0
6.0,4.7075,0.422979,32.45,2222255.5,1611470844.544079,0
6.0,-4.958,,,2224166.0,1611470844.617763,0
6.0,-20.473999999999997,,,2226533.5,1611470844.6914473,0
6.0,-15.292499999999999,0.417855,32.45,2228559.0,1611470844.7651315,0
6.0,14.166,,,2226482.0,1611470844.8388157,0
6.0,18.490000000000002,,,2224514.5,1611470844.9125,0
6.0,10.856,,,2224264.0,1611470844.9861841,0
6.0,8.965,0.415293,32.45,2225310.0,1611470845.0598683,0
6.0,2.628,,,2226132.0,1611470845.1335526,0
6.0,-11.152,,,2227481.0,1611470845.2072368,0
6.0,-24.34,0.416574,32.43,2229598.5,1611470845.280921,0
6.0,-33.18,,,2231464.0,1611470845.3546052,0
6.0,-11.08,,,2232503.5,1611470845.4282894,0
6.0,15.902000000000001,0.417855,32.43,2229617.0,1611470845.5019736,0
6.0,17.7925,,,2227915.5,1611470845.5756578,0
6.0,14.016,,,2228431.5,1611470845.649342,0
6.0,16.944,,,2229227.5,1611470845.7230263,0
6.0,8.2775,0.420417,32.43,2229899.0,1611470845.7967105,0
6.0,-4.714,,,2230601.5,1611470845.8703947,0
6.0,-20.818,,,2232759.0,1611470845.944079,0
6.0,-16.035999999999998,0.419136,32.43,2235173.0,1611470846.0177631,0
6.0,13.9575,,,2234212.0,1611470846.0914474,0
6.0,23.016,,,2230874.5,1611470846.1651316,0
6.0,16.838,,,2230039.0,1611470846.2388158,0
6.0,14.16,0.421698,32.45,2230646.5,1611470846.3125,0
6.0,11.676,,,2231422.0,1611470846.3861842,0
6.0,-3.232,,,2231978.5,1611470846.4598684,0
6.0,-14.766000000000002,0.417855,32.45,2233337.0,1611470846.5335526,0
6.0,-33.8825,,,2235465.5,1611470846.6072369,0
6.0,-33.442,,,2235727.5,1611470846.680921,0
6.0,1.0920000000000005,0.417855,32.45,2232815.0,1611470846.7546053,0
6.0,12.174,,,2231102.0,1611470846.8282895,0
6.0,12.265,,,2230563.0,1611470846.9019737,0
6.0,13.420000000000002,,,2231014.0,1611470846.975658,0
6.0,9.622,0.421698,32.45,2231182.5,1611470847.0493422,0
6.0,0.7725000000000001,,,2232138.0,1611470847.1230264,0
6.0,-10.636000000000001,,,2233309.0,1611470847.1967106,0
6.0,-28.594,0.421698,32.43,2234920.5,1611470847.2703948,0
6.0,-21.188,,,2233061.0,1611470847.344079,0
6.0,7.404999999999999,,,2228697.0,1611470847.4177632,0
6.0,14.148000000000001,,,2227197.0,1611470847.4914474,0
6.0,12.732,0.422979,32.43,2226996.0,1611470847.5651317,0
6.0,13.5475,,,2226847.0,1611470847.6388159,0
6.0,9.248000000000001,,,2226905.0,1611470847.7125,0
6.0,-3.2079999999999997,0.422979,32.43,2227847.0,1611470847.7861843,0
6.0,-16.454,,,2229323.0,1611470847.8598685,0
6.0,-33.6275,,,2228791.5,1611470847.9335527,0
6.0,-29.324,0.417855,32.43,2223652.0,1611470848.007237,0
6.0,4.814,,,2220529.0,1611470848.080921,0
6.0,13.600000000000001,,,2219827.0,1611470848.1546052,0
6.0,10.086000000000002,,,2219299.0,1611470848.2282894,0
6.0,11.052,0.416574,32.43,2218638.5,1611470848.3019736,0
6.0,8.732,,,2218886.5,1611470848.3756578,0
6.0,-0.2874999999999999,,,2220354.0,1611470848.449342,0
6.0,-9.206,0.416574,32.43,2221425.5,1611470848.5230262,0
6.0,-26.336000000000002,,,2219267.0,1611470848.5967104,0
6.0,-20.625000000000004,,,2215070.5,1611470848.6703947,0
6.0,8.72,,,2212024.0,1611470848.7440789,0
6.0,21.648,0.417855,32.43,2210858.5,1611470848.817763,0
6.0,20.589999999999996,,,2210272.5,1611470848.8914473,0
6.0,20.4275,,,2210207.0,1611470848.9651315,0
6.0,20.29,0.421698,32.43,2210598.0,1611470849.0388157,0
6.0,8.963999999999999,,,2211727.5,1611470849.1125,0
6.0,-6.205,,,2213580.0,1611470849.1861842,0
6.0,-22.573999999999998,0.422979,32.43,2211319.5,1611470849.2598684,0
6.0,-3.8299999999999996,,,2206319.0,1611470849.3335526,0
6.0,24.288,,,2203730.5,1611470849.4072368,0
6.0,21.5075,,,2203106.5,1611470849.480921,0
6.0,17.002000000000002,0.421698,32.43,2202813.0,1611470849.5546052,0
6.0,17.75,,,2202439.0,1611470849.6282895,0
6.0,13.114999999999998,,,2203222.0,1611470849.7019737,0
6.0,-4.226,0.417855,32.43,2204675.5,1611470849.775658,0
6.0,-15.788,,,2206115.0,1611470849.849342,0
6.0,-33.862,,,2202250.0,1611470849.9230263,0
6.0,-29.065,,,2198685.0,1611470849.9967105,0
6.0,1.5099999999999998,0.417855,32.43,2196917.5,1611470850.0703948,0
6.0,10.068,,,2196111.0,1611470850.144079,0
6.0,10.545000000000002,,,2195475.0,1611470850.2177632,0
6.0,18.054000000000002,0.417855,32.45,2195360.0,1611470850.2914474,0
6.0,16.618000000000002,,,2196324.5,1611470850.3651316,0
6.0,5.688000000000001,,,2197549.0,1611470850.4388158,0
6.0,-6.5275,0.420417,32.45,2199043.5,1611470850.5125,0
6.0,-17.375999999999998,,,2197307.0,1611470850.5861843,0
6.0,-35.540000000000006,,,2192508.5,1611470850.6598685,0
6.0,-29.9425,,,2190240.0,1611470850.7335527,0
6.0,0.32800000000000046,0.421698,32.45,2189732.5,1611470850.807237,0
6.0,14.684000000000001,,,2189196.0,1611470850.8809211,0
6.0,19.115999999999996,,,2189145.0,1611470850.9546053,0
6.0,20.667499999999997,0.420417,32.45,2189874.0,1611470851.0282896,0
6.0,20.836000000000002,,,2191452.5,1611470851.1019738,0
6.0,14.794,,,2193236.0,1611470851.175658,0
6.0,0.48750000000000004,,,2190252.5,1611470851.2493422,0
6.0,-10.841999999999999,0.420417,32.43,2186424.0,1611470851.3230264,0
6.0,-22.386000000000003,,,2185300.0,1611470851.3967106,0
6.0,-38.264,,,2185148.0,1611470851.4703948,0
6.0,-21.8625,0.416574,32.43,2184903.5,1611470851.544079,0
6.0,7.056,,,2185116.0,1611470851.617763,0
6.0,17.302,,,2186305.0,1611470851.6914473,0
6.0,21.0825,0.417855,32.43,2188223.0,1611470851.7651315,0
6.0,20.252000000000002,,,2189303.0,1611470851.8388157,0
6.0,20.035999999999998,,,2186497.0,1611470851.9125,0
6.0,14.815999999999999,,,2182704.5,1611470851.9861841,0
6.0,1.4525000000000001,0.414012,32.43,2181481.5,1611470852.0598683,0
6.0,-11.116,,,2181465.0,1611470852.1335526,0
6.0,-20.636,,,2181294.5,1611470852.2072368,0
6.0,-38.1325,0.420417,32.43,2182378.0,1611470852.280921,0
6.0,-32.324,,,2183905.0,1611470852.3546052,0
6.0,-0.9819999999999999,,,2185317.0,1611470852.4282894,0
6.0,7.109999999999999,0.417855,32.43,2187526.0,1611470852.5019736,0
6.0,6.5,,,2184854.0,1611470852.5756578,0
6.0,8.988,,,2180322.5,1611470852.649342,0
6.0,13.447999999999999,,,2178082.0,1611470852.7230263,0
6.0,8.015,0.419136,32.43,2177580.0,1611470852.7967105,0
6.0,-4.84,,,2177449.0,1611470852.8703947,0
6.0,-15.196000000000002,,,2177634.5,1611470852.944079,0
6.0,-25.520000000000003,0.415293,32.43,2178557.0,1611470853.0177631,0
6.0,-30.515,,,2180552.0,1611470853.0914474,0
6.0,-9.464000000000002,,,2182857.5,1611470853.1651316,0
6.0,15.506,,,2184688.0,1611470853.2388158,0
6.0,19.682499999999997,0.41145,32.45,2182928.0,1611470853.3125,0
6.0,19.838,,,2178414.0,1611470853.3861842,0
6.0,24.022,,,2175818.0,1611470853.4598684,0
6.0,24.924,0.414012,32.45,2175181.5,1611470853.5335526,0
6.0,9.5,,,2174918.0,1611470853.6072369,0
6.0,-4.39,,,2175106.0,1611470853.680921,0
6.0,-19.812,0.416574,32.45,2175927.5,1611470853.7546053,0
6.0,-15.236,,,2177716.0,1611470853.8282895,0
6.0,11.690000000000001,,,2180026.5,1611470853.9019737,0
6.0,16.198,,,2182857.0,1611470853.975658,0
6.0,15.091999999999999,0.416574,32.45,2184626.0,1611470854.0493422,0
6.0,13.19,,,2181909.0,1611470854.1230264,0
6.0,11.959999999999999,,,2178916.0,1611470854.1967106,0
6.0,5.561999999999999,0.415293,32.41,2177010.5,1611470854.2703948,0
6.0,-7.164,,,2176607.0,1611470854.344079,0
6.0,-18.424999999999997,,,2176871.0,1611470854.4177632,0
6.0,-35.212,,,2177427.0,1611470854.4914474,0
6.0,-32.019999999999996,0.416574,32.41,2179139.0,1611470854.5651317,0
6.0,-3.9974999999999996,,,2180905.0,1611470854.6388159,0
6.0,7.346000000000001,,,2182796.0,1611470854.7125,0
6.0,10.448,0.41145,32.41,2185645.0,1611470854.7861843,0
6.0,15.341999999999999,,,2188394.0,1611470854.8598685,0
6.0,16.645,,,2185873.0,1611470854.9335527,0
6.0,10.99,0.41145,32.41,2182918.5,1611470855.007237,0
6.0,-2.402,,,2182015.0,1611470855.080921,0
6.0,-16.16,,,2182111.0,1611470855.1546052,0
6.0,-32.04,,,2182547.5,1611470855.2282894,0
6.0,-19.95,0.41145,32.43,2183500.0,1611470855.3019736,0
6.0,7.718000000000001,,,2185159.0,1611470855.3756578,0
6.0,13.600000000000001,,,2187566.0,1611470855.449342,0
6.0,13.035999999999998,0.412731,32.43,2189504.0,1611470855.5230262,0
6.0,14.25,,,2191607.5,1611470855.5967104,0
6.0,12.059999999999999,,,2194112.5,1611470855.6703947,0
6.0,5.961999999999999,,,2191546.0,1611470855.7440789,0
6.0,-6.398,0.417855,32.43,2189440.5,1611470855.817763,0
6.0,-18.634,,,2189448.5,1611470855.8914473,0
6.0,-35.6025,,,2190063.0,1611470855.9651315,0
6.0,-24.168,0.417855,32.43,2190326.5,1611470856.0388157,0
6.0,10.425999999999998,,,2191513.5,1611470856.1125,0
6.0,14.7375,,,2193607.5,1611470856.1861842,0
6.0,12.556000000000001,0.415293,32.43,2196186.5,1611470856.2598684,0
6.0,14.435999999999998,,,2199051.5,1611470856.3335526,0
6.0,10.5,,,2199616.0,1611470856.4072368,0
6.0,3.5949999999999998,,,2196848.5,1611470856.480921,0
6.0,-8.690000000000001,0.410169,32.43,2195046.0,1611470856.5546052,0
6.0,-22.164,,,2195263.0,1611470856.6282895,0
6.0,-38.394999999999996,,,2196261.5,1611470856.7019737,0
6.0,-32.248000000000005,0.41145,32.43,2197352.0,1611470856.775658,0
6.0,1.704,,,2199144.5,1611470856.849342,0
6.0,12.276,,,2201152.0,1611470856.9230263,0
6.0,12.385000000000002,,,2203086.0,1611470856.9967105,0
6.0,11.284,0.408888,32.43,2206148.5,1611470857.0703948,0
6.0,10.412,,,2206027.5,1611470857.144079,0
6.0,4.365,,,2202239.5,1611470857.2177632,0
6.0,-4.096,0.414012,32.41,2201087.0,1611470857.2914474,0
6.0,-18.634,,,2200831.0,1611470857.3651316,0
6.0,-21.476,,,2201511.0,1611470857.4388158,0
6.0,9.247499999999999,0.414012,32.41,2202004.0,1611470857.5125,0
6.0,23.736,,,2203455.0,1611470857.5861843,0
6.0,22.961999999999996,,,2205649.0,1611470857.6598685,0
6.0,14.66,,,2208357.5,1611470857.7335527,0
6.0,11.318000000000001,0.412731,32.41,2210405.0,1611470857.807237,0
6.0,11.204,,,2208899.5,1611470857.8809211,0
6.0,1.2960000000000003,,,2205308.5,1611470857.9546053,0
6.0,-20.637500000000003,0.414012,32.41,2204056.0,1611470858.0282896,0
6.0,-24.296,,,2204417.5,1611470858.1019738,0
6.0,9.044,,,2205015.0,1611470858.175658,0
6.0,21.387500000000003,,,2205770.0,1611470858.2493422,0
6.0,18.122,0.410169,32.43,2206991.0,1611470858.3230264,0
6.0,12.304,,,2209174.0,1611470858.3967106,0
6.0,11.08,,,2211954.5,1611470858.4703948,0
6.0,0.30000000000000004,0.407607,32.43,2214347.5,1611470858.544079,0
6.0,-13.124,,,2212386.0,1611470858.617763,0
6.0,-27.080000000000002,,,2209513.0,1611470858.6914473,0
6.0,-42.08,0.407607,32.43,2208589.0,1611470858.7651315,0
6.0,-16.838,,,2208411.5,1611470858.8388157,0
6.0,10.256,,,2209069.0,1611470858.9125,0
6.0,11.259999999999998,,,2209820.0,1611470858.9861841,0
6.0,10.450000000000001,0.412731,32.43,2211493.0,1611470859.0598683,0
6.0,13.35,,,2212932.0,1611470859.1335526,0
6.0,6.6899999999999995,,,2214952.0,1611470859.2072368,0
6.0,-3.3525,0.41145,32.41,2217614.0,1611470859.280921,0
6.0,-14.945999999999998,,,2216951.5,1611470859.3546052,0
6.0,-39.466,,,2213374.5,1611470859.4282894,0
6.0,-20.818,0.41145,32.41,2212198.0,1611470859.5019736,0
6.0,16.275,,,2212237.0,1611470859.5756578,0
6.0,18.954,,,2212811.0,1611470859.649342,0
6.0,16.966,,,2213147.0,1611470859.7230263,0
6.0,15.8925,0.41145,32.41,2214297.5,1611470859.7967105,0
6.0,10.998,,,2216401.5,1611470859.8703947,0
6.0,4.172000000000001,,,2218858.0,1611470859.944079,0
6.0,-8.097999999999999,0.406326,32.41,2219723.0,1611470860.0177631,0
6.0,-21.567500000000003,,,2217196.5,1611470860.0914474,0
6.0,-37.722,,,2214609.0,1611470860.1651316,0
6.0,-12.126000000000001,,,2214526.5,1611470860.2388158,0
6.0,10.0175,0.408888,32.41,2215093.5,1611470860.3125,0
6.0,12.824000000000002,,,2215447.0,1611470860.3861842,0
6.0,11.685999999999998,,,2216508.5,1611470860.4598684,0
6.0,10.25,0.408888,32.41,2217937.0,1611470860.5335526,0
6.0,6.21,,,2219663.5,1611470860.6072369,0
6.0,-6.609999999999999,,,2220348.0,1611470860.680921,0
6.0,-19.450000000000003,0.412731,32.41,2216340.0,1611470860.7546053,0
6.0,-38.418,,,2214468.0,1611470860.8282895,0
6.0,-35.477500000000006,,,2214249.5,1611470860.9019737,0
6.0,0.466,,,2214548.0,1611470860.975658,0
6.0,17.148000000000003,0.414012,32.41,2214708.5,1611470861.0493422,0
6.0,18.695,,,2215548.5,1611470861.1230264,0
6.0,17.330000000000002,,,2217253.0,1611470861.1967106,0
6.0,17.6,0.410169,32.41,2219553.5,1611470861.2703948,0
6.0,15.668000000000003,,,2219586.5,1611470861.344079,0
6.0,10.864999999999998,,,2215847.0,1611470861.4177632,0
6.0,-1.598,,,2213176.0,1611470861.4914474,0
6.0,-22.887999999999998,0.41145,32.41,2211294.0,1611470861.5651317,0
6.0,-4.055,,,2210934.5,1611470861.6388159,0
6.0,28.887999999999998,,,2210675.5,1611470861.7125,0
6.0,32.482,0.407607,32.41,2210997.5,1611470861.7861843,0
6.0,5.266,,,2212017.0,1611470861.8598685,0
6.0,3.3499999999999996,,,2213245.5,1611470861.9335527,0
6.0,12.288,0.408888,32.41,2215048.0,1611470862.007237,0
6.0,-2.122,,,2212275.5,1611470862.080921,0
6.0,-16.225,,,2207983.5,1611470862.1546052,0
6.0,-39.346000000000004,,,2205976.0,1611470862.2282894,0
6.0,-16.567999999999998,0.407607,32.41,2205251.0,1611470862.3019736,0
6.0,28.948,,,2205046.5,1611470862.3756578,0
6.0,24.200000000000003,,,2204866.5,1611470862.449342,0
6.0,19.588,0.408888,32.41,2205783.0,1611470862.5230262,0
6.0,19.272,,,2207168.5,1611470862.5967104,0
6.0,13.167499999999999,,,2209307.0,1611470862.6703947,0
6.0,7.287999999999999,,,2209767.5,1611470862.7440789,0
6.0,-9.053999999999998,0.414012,32.41,,1611470862.817763,0
6.0,-26.248,,,2205152.0,1611470862.8914473,0
6.0,-41.655,,,2202025.0,1611470862.9651315,0
6.0,-26.53,0.410169,32.41,2200632.5,1611470863.0388157,0
6.0,6.814,,,2200284.0,1611470863.1125,0
6.0,13.274999999999999,,,2200014.0,1611470863.1861842,0
6.0,16.032,0.408888,32.43,2200332.0,1611470863.2598684,0
6.0,17.377999999999997,,,2201596.5,1611470863.3335526,0
6.0,18.182,,,2203458.5,1611470863.4072368,0
6.0,13.182500000000001,,,2205381.0,1611470863.480921,0
6.0,-3.604,0.407607,32.43,2202938.0,1611470863.5546052,0
6.0,-21.122000000000003,,,2199284.0,1611470863.6282895,0
6.0,-39.1725,,,2197831.5,1611470863.7019737,0
6.0,-21.612000000000002,0.405046,32.43,2197038.0,1611470863.775658,0
6.0,12.91,,,2196910.5,1611470863.849342,0
6.0,18.395999999999997,,,2196603.5,1611470863.9230263,0
6.0,20.47,,,2197584.0,1611470863.9967105,0
6.0,16.791999999999998,0.407607,32.43,2198654.0,1611470864.0703948,0
6.0,1.094,,,2200056.0,1611470864.144079,0
6.0,-5.28,,,2200678.0,1611470864.2177632,0
6.0,-14.166,0.410169,32.39,2196754.5,1611470864.2914474,0
6.0,-38.112,,,2194487.5,1611470864.3651316,0
6.0,-43.254,,,2194148.0,1611470864.4388158,0
6.0,-6.535,0.41145,32.39,2194492.0,1611470864.5125,0
6.0,13.73,,,2194477.0,1611470864.5861843,0
6.0,13.838,,,2195301.0,1611470864.6598685,0
6.0,16.295,,,2197094.5,1611470864.7335527,0
6.0,19.176,0.410169,32.39,2199368.5,1611470864.807237,0
6.0,17.580000000000002,,,2200504.0,1611470864.8809211,0
6.0,6.959999999999999,,,2196317.0,1611470864.9546053,0
6.0,-6.485,0.410169,32.39,2193584.0,1611470865.0282896,0
6.0,-19.106,,,2192612.5,1611470865.1019738,0
6.0,7.601999999999999,,,2192310.5,1611470865.175658,0
6.0,30.259999999999998,,,2192275.5,1611470865.2493422,0
6.0,37.058,0.406326,32.43,2193024.0,1611470865.3230264,0
6.0,34.230000000000004,,,2194538.0,1611470865.3967106,0
6.0,24.764000000000003,,,2196130.0,1611470865.4703948,0
6.0,18.3775,0.405046,32.43,2198045.0,1611470865.544079,0
6.0,7.031999999999999,,,2200026.0,1611470865.617763,0
6.0,-9.45,,,2196796.0,1611470865.6914473,0
6.0,-24.9,0.405046,32.43,2193089.5,1611470865.7651315,0
6.0,-10.322000000000001,,,2191467.0,1611470865.8388157,0
6.0,29.27,,,2191295.0,1611470865.9125,0
6.0,41.708,,,2191344.0,1611470865.9861841,0
6.0,40.4525,0.408888,32.43,2191558.5,1611470866.0598683,0
6.0,37.366,,,2192810.5,1611470866.1335526,0
6.0,20.363999999999997,,,2194914.0,1611470866.2072368,0
6.0,-6.8999999999999995,0.410169,32.41,2197264.0,1611470866.280921,0
6.0,-46.238,,,2198397.0,1611470866.3546052,0
6.0,-114.01200000000001,,,2195639.5,1611470866.4282894,0
6.0,-150.83800000000002,0.41145,32.41,2192112.0,1611470866.5019736,0
6.0,-119.10250000000002,,,2190780.0,1611470866.5756578,0
6.0,-89.574,,,2190739.0,1611470866.649342,0
6.0,-47.208,,,2190980.5,1611470866.7230263,0
6.0,4.495,0.410169,32.41,2191375.0,1611470866.7967105,0
6.0,35.974000000000004,,,2192843.0,1611470866.8703947,0
6.0,38.970000000000006,,,2194764.5,1611470866.944079,0
6.0,27.45,0.406326,32.41,2197117.5,1611470867.0177631,0
6.0,7.505,,,2197284.0,1611470867.0914474,0
6.0,-11.347999999999999,,,2193586.0,1611470867.1651316,0
6.0,9.648,,,2192240.0,1611470867.2388158,0
6.0,27.854999999999997,0.402484,32.41,2192008.5,1611470867.3125,0
6.0,28.53,,,2192077.5,1611470867.3861842,0
6.0,27.008,,,2192310.0,1611470867.4598684,0
6.0,26.172000000000004,0.406326,32.41,2193293.0,1611470867.5335526,0
6.0,23.134999999999998,,,2195085.0,1611470867.6072369,0
6.0,8.788,,,2196850.0,1611470867.680921,0
6.0,-6.202000000000001,0.410169,32.41,2197959.0,1611470867.7546053,0
6.0,-22.25,,,2194692.5,1611470867.8282895,0
6.0,-29.1425,,,2192133.0,1611470867.9019737,0
6.0,1.1219999999999999,,,2191874.0,1611470867.975658,0
6.0,22.458,0.407607,32.41,2192319.0,1611470868.0493422,0
6.0,22.095000000000002,,,2192655.5,1611470868.1230264,0
6.0,20.706,,,2193570.0,1611470868.1967106,0
6.0,18.049999999999997,0.408888,32.39,2195028.5,1611470868.2703948,0
6.0,13.598000000000003,,,2197323.0,1611470868.344079,0
6.0,5.7925,,,2198901.0,1611470868.4177632,0
6.0,-9.116,,,2195344.0,1611470868.4914474,0
6.0,-20.610000000000003,0.405046,32.39,2192125.0,1611470868.5651317,0
6.0,2.1125,,,2190828.0,1611470868.6388159,0
6.0,24.48,,,2190704.5,1611470868.7125,0
6.0,26.821999999999996,0.405046,32.39,2190556.0,1611470868.7861843,0
6.0,20.426,,,2190990.0,1611470868.8598685,0
6.0,17.495,,,2192485.5,1611470868.9335527,0
6.0,12.234,0.405046,32.39,2194466.0,1611470869.007237,0
6.0,-0.21999999999999992,,,2196194.0,1611470869.080921,0
6.0,-17.255,,,2195040.5,1611470869.1546052,0
6.0,-34.00600000000001,,,2190594.5,1611470869.2282894,0
6.0,-9.947999999999999,0.405046,32.39,2187824.5,1611470869.3019736,0
6.0,19.038,,,2186694.0,1611470869.3756578,0
6.0,15.87,,,2186615.0,1611470869.449342,0
6.0,10.459999999999999,0.407607,32.39,2186864.0,1611470869.5230262,0
6.0,12.746,,,2187197.0,1611470869.5967104,0
6.0,8.6825,,,2188816.0,1611470869.6703947,0
6.0,-7.103999999999999,,,2190958.5,1611470869.7440789,0
6.0,-20.144000000000002,0.408888,32.39,2191727.5,1611470869.817763,0
6.0,-38.483999999999995,,,2187432.0,1611470869.8914473,0
6.0,-27.604999999999997,,,2184843.0,1611470869.9651315,0
6.0,6.678,0.408888,32.39,2183602.0,1611470870.0388157,0
6.0,19.438,,,2183301.0,1611470870.1125,0
6.0,17.752499999999998,,,2183123.0,1611470870.1861842,0
6.0,15.559999999999999,0.405046,32.41,2183515.5,1611470870.2598684,0
6.0,14.266000000000002,,,2184881.0,1611470870.3335526,0
6.0,5.602,,,2186340.0,1611470870.4072368,0
6.0,-7.3225,,,2188190.5,1611470870.480921,0
6.0,-15.945999999999998,0.402484,32.41,2188815.5,1611470870.5546052,0
6.0,-32.916,,,2184691.0,1611470870.6282895,0
6.0,-21.7025,,,2182199.0,1611470870.7019737,0
6.0,11.065999999999999,0.399922,32.41,2181493.5,1611470870.775658,0
6.0,21.188,,,2181502.0,1611470870.849342,0
6.0,16.785999999999998,,,2181362.0,1611470870.9230263,0
6.0,16.315,,,2182152.0,1611470870.9967105,0
6.0,14.982,0.405046,32.41,2183725.5,1611470871.0703948,0
6.0,5.465999999999999,,,2185854.5,1611470871.144079,0
6.0,-10.817499999999999,,,2186611.5,1611470871.2177632,0
6.0,-25.803999999999995,0.407607,32.37,2183057.0,1611470871.2914474,0
6.0,-40.514,,,2181142.0,1611470871.3651316,0
6.0,-20.026000000000003,,,2180762.5,1611470871.4388158,0
6.0,8.855,0.406326,32.37,2181243.0,1611470871.5125,0
6.0,17.144,,,2181459.0,1611470871.5861843,0
6.0,15.784,,,2182759.0,1611470871.6598685,0
6.0,11.835,,,2184498.0,1611470871.7335527,0
6.0,9.742,0.403765,32.37,2186252.0,1611470871.807237,0
6.0,-0.39800000000000024,,,2187956.5,1611470871.8809211,0
6.0,-12.728,,,2185112.0,1611470871.9546053,0
6.0,-24.417499999999997,0.402484,32.37,2181547.0,1611470872.0282896,0
6.0,-20.798,,,2180592.5,1611470872.1019738,0
6.0,11.308,,,2180466.0,1611470872.175658,0
6.0,22.097499999999997,,,2180656.0,1611470872.2493422,0
6.0,21.114,0.403765,32.37,2181077.0,1611470872.3230264,0
6.0,17.282,,,2182572.5,1611470872.3967106,0
6.0,17.988,,,2184683.5,1611470872.4703948,0
6.0,11.5875,0.399922,32.37,2187037.0,1611470872.544079,0
6.0,-1.848,,,2184718.5,1611470872.617763,0
6.0,-18.134,,,2181459.0,1611470872.6914473,0
6.0,-30.3575,0.406326,32.37,2179639.0,1611470872.7651315,0
6.0,-6.525999999999999,,,2178753.0,1611470872.8388157,0
6.0,17.65,,,2179012.0,1611470872.9125,0
6.0,17.804,,,2179276.0,1611470872.9861841,0
6.0,12.835,0.407607,32.37,2180573.5,1611470873.0598683,0
6.0,10.462,,,2182604.5,1611470873.1335526,0
6.0,4.038,,,2184504.0,1611470873.2072368,0
6.0,-5.404999999999999,0.405046,32.41,2186356.5,1611470873.280921,0
6.0,-15.919999999999998,,,2184075.0,1611470873.3546052,0
6.0,-35.658,,,2180278.0,1611470873.4282894,0
6.0,-28.22,0.405046,32.41,2178910.0,1611470873.5019736,0
6.0,1.8774999999999995,,,2178703.5,1611470873.5756578,0
6.0,13.029999999999998,,,2178922.0,1611470873.649342,0
6.0,13.16,,,2179213.5,1611470873.7230263,0
6.0,12.754999999999999,0.401203,32.41,2180592.5,1611470873.7967105,0
6.0,11.788,,,2182812.0,1611470873.8703947,0
6.0,1.592,,,2185257.5,1611470873.944079,0
6.0,-12.190000000000001,0.402484,32.41,2186839.0,1611470874.0177631,0
6.0,-26.0,,,2184316.0,1611470874.0914474,0
6.0,-40.852000000000004,,,2181998.0,1611470874.1651316,0
6.0,-15.803999999999998,,,2180626.5,1611470874.2388158,0
6.0,11.4275,0.401203,32.39,2180812.0,1611470874.3125,0
6.0,13.675999999999998,,,2181140.0,1611470874.3861842,0
6.0,14.394,,,2181968.5,1611470874.4598684,0
6.0,13.866,0.401203,32.39,2183826.5,1611470874.5335526,0
6.0,9.5225,,,2185719.0,1611470874.6072369,0
6.0,-2.378,,,2187650.0,1611470874.680921,0
6.0,-17.242,0.402484,32.39,2188363.0,1611470874.7546053,0
6.0,-33.955999999999996,,,2184760.0,1611470874.8282895,0
6.0,-31.342499999999998,,,2183560.0,1611470874.9019737,0
6.0,-0.13800000000000026,,,2184204.5,1611470874.975658,0
6.0,15.106,0.405046,32.39,2184938.0,1611470875.0493422,0
6.0,14.0975,,,2185142.5,1611470875.1230264,0
6.0,12.254,,,2186585.0,1611470875.1967106,0
6.0,12.161999999999999,0.419136,32.39,2188886.5,1611470875.2703948,0
